##TITLE=Spectrum
##JCAMP-DX=5.00 $$ chemotion-converter-app (1.4.0)
##DATA TYPE=CYCLIC VOLTAMMETRY
##DATA CLASS=XYPOINTS
##ORIGIN=
##OWNER=
##CALCULATION_APPLIED_Y=True
##XUNITS=Voltage in V
##YUNITS=Current in A
##CYCLES=1
##TIME=15:58:21
##DATE=2019-10-25
##SCAN_RATE=2.000E-001
##SOFTWARE=PSTrace
##SOFTWARE_VERSION=5.4.1528.18404
##STEP_SIZE=1.000E-002
##VOLTAGE_START=0.000E+000
##VOLTAGE_LIMIT_ONE=-2.700E+000
##VOLTAGE_LIMIT_TWO=2.000E+000
##VOLTAGE_LIMIT_END=5.000E-001
##COMMENTS=p-Br-Ph-CO2Me_MeCN.pssession
##FIRSTX=4.99413E-05
##LASTX=0.0100439
##MINX=-2.50842
##MAXX=2.00882
##MINY=-0.0005435399999999999
##MAXY=2.12285e-05
##NPOINTS=904
##FIRSTY=-4.19538e-06
##XUNITS=Voltage in V
##YUNITS=Current in A
##XYPOINTS=(XY..XY)
4.99413E-05, -4.19538e-06
-0.00994404, -2.93161e-06
-0.019938, -2.47285e-06
-0.0299316, -2.2428499999999996e-06
-0.0399256, -2.1159699999999997e-06
-0.0499196, -2.03909e-06
-0.0599135, -1.99472e-06
-0.0699075, -1.9697199999999997e-06
-0.0799013, -1.95409e-06
-0.0898951, -1.95034e-06
-0.0998891, -1.94909e-06
-0.109883, -1.95347e-06
-0.119877, -1.9597199999999998e-06
-0.129871, -1.96784e-06
-0.139865, -1.9753400000000002e-06
-0.149859, -1.98472e-06
-0.159853, -1.99659e-06
-0.169846, -2.00784e-06
-0.17984, -2.01534e-06
-0.189834, -2.02659e-06
-0.199828, -2.03472e-06
-0.209822, -2.04347e-06
-0.219816, -2.05347e-06
-0.22981, -2.06222e-06
-0.239804, -2.0703399999999997e-06
-0.249798, -2.07909e-06
-0.259792, -2.08284e-06
-0.269785, -2.09472e-06
-0.279779, -2.09972e-06
-0.289773, -2.1097199999999996e-06
-0.299767, -2.11035e-06
-0.309761, -2.11784e-06
-0.319755, -2.12222e-06
-0.329749, -2.12597e-06
-0.339743, -2.1291e-06
-0.349737, -2.13535e-06
-0.359731, -2.1366e-06
-0.369724, -2.1415899999999997e-06
-0.379718, -2.14285e-06
-0.389712, -2.14785e-06
-0.399706, -2.1472199999999997e-06
-0.4097, -2.15035e-06
-0.419694, -2.15097e-06
-0.429688, -2.1541e-06
-0.439682, -2.1541e-06
-0.449676, -2.15597e-06
-0.45967, -2.1584699999999998e-06
-0.469663, -2.1615999999999998e-06
-0.479657, -2.1609699999999997e-06
-0.489651, -2.16472e-06
-0.499645, -2.1665999999999997e-06
-0.509639, -2.1716e-06
-0.519633, -2.16972e-06
-0.529627, -2.1766e-06
-0.539621, -2.17785e-06
-0.549615, -2.1847199999999997e-06
-0.559609, -2.1866e-06
-0.569602, -2.1916e-06
-0.579596, -2.19347e-06
-0.58959, -2.2016e-06
-0.599584, -2.20285e-06
-0.609578, -2.21285e-06
-0.619572, -2.21285e-06
-0.629566, -2.22222e-06
-0.63956, -2.2234699999999996e-06
-0.649554, -2.23097e-06
-0.659548, -2.23347e-06
-0.669541, -2.23972e-06
-0.679535, -2.2403499999999996e-06
-0.689529, -2.2459699999999998e-06
-0.699523, -2.24222e-06
-0.709517, -2.2466e-06
-0.719511, -2.24722e-06
-0.729505, -2.25097e-06
-0.739499, -2.25035e-06
-0.749493, -2.25285e-06
-0.759487, -2.25285e-06
-0.769481, -2.25722e-06
-0.779474, -2.25597e-06
-0.789468, -2.2597200000000003e-06
-0.799462, -2.2591e-06
-0.809456, -2.2666e-06
-0.81945, -2.2653500000000003e-06
-0.829444, -2.2697199999999998e-06
-0.839438, -2.2703499999999998e-06
-0.849432, -2.2766e-06
-0.859426, -2.27597e-06
-0.86942, -2.28097e-06
-0.879413, -2.28347e-06
-0.889407, -2.28972e-06
-0.899401, -2.28972e-06
-0.909395, -2.29535e-06
-0.919389, -2.29785e-06
-0.929383, -2.30222e-06
-0.939377, -2.30285e-06
-0.949371, -2.30972e-06
-0.959365, -2.31035e-06
-0.969359, -2.31597e-06
-0.979353, -2.32222e-06
-0.989347, -2.32847e-06
-0.99934, -2.3291e-06
-1.00933, -2.33597e-06
-1.01933, -2.34285e-06
-1.02932, -2.3466e-06
-1.03932, -2.3515999999999996e-06
-1.04931, -2.3591e-06
-1.0593, -2.3641e-06
-1.0693, -2.3691e-06
-1.07929, -2.37222e-06
-1.08929, -2.38035e-06
-1.09928, -2.38535e-06
-1.10927, -2.3909699999999997e-06
-1.11927, -2.39722e-06
-1.12926, -2.4016e-06
-1.13926, -2.40472e-06
-1.14925, -2.41223e-06
-1.15924, -2.41472e-06
-1.16924, -2.4191e-06
-1.17923, -2.4265999999999998e-06
-1.18922, -2.43348e-06
-1.19922, -2.43785e-06
-1.20921, -2.4478499999999998e-06
-1.21921, -2.45785e-06
-1.2292, -2.4697300000000002e-06
-1.23919, -2.48098e-06
-1.24919, -2.4928499999999998e-06
-1.25918, -2.50598e-06
-1.26918, -2.5222299999999997e-06
-1.27917, -2.5391e-06
-1.28916, -2.55723e-06
-1.29916, -2.57473e-06
-1.30915, -2.5959799999999997e-06
-1.31915, -2.61785e-06
-1.32914, -2.64473e-06
-1.33913, -2.66598e-06
-1.34913, -2.69598e-06
-1.35912, -2.72285e-06
-1.36911, -2.7522299999999997e-06
-1.37911, -2.7766000000000002e-06
-1.3891, -2.81036e-06
-1.3991, -2.83536e-06
-1.40909, -2.87036e-06
-1.41908, -2.90411e-06
-1.42908, -2.94348e-06
-1.43907, -2.98223e-06
-1.44907, -3.0353599999999995e-06
-1.45906, -3.09098e-06
-1.46905, -3.16224e-06
-1.47905, -3.24411e-06
-1.48904, -3.3516099999999997e-06
-1.49904, -3.4847399999999997e-06
-1.50903, -3.65662e-06
-1.51902, -3.871e-06
-1.52902, -4.1597499999999994e-06
-1.53901, -4.53038e-06
-1.549, -5.01601e-06
-1.559, -5.6429e-06
-1.56899, -6.46229e-06
-1.57899, -7.51918e-06
-1.58898, -8.88482e-06
-1.59897, -1.0608599999999999e-05
-1.60897, -1.27955e-05
-1.61896, -1.55168e-05
-1.62896, -1.88837e-05
-1.63895, -2.29847e-05
-1.64894, -2.7903599999999998e-05
-1.65894, -3.36911e-05
-1.66893, -4.0435e-05
-1.67893, -4.81664e-05
-1.68892, -5.6910299999999996e-05
-1.69891, -6.664159999999999e-05
-1.70891, -7.73793e-05
-1.7189, -8.904819999999999e-05
-1.7289, -0.000101598
-1.73889, -0.000114955
-1.74888, -0.00012911799999999998
-1.75888, -0.000143912
-1.76887, -0.000159299
-1.77886, -0.000175168
-1.78886, -0.00019103399999999997
-1.79885, -0.000207722
-1.80885, -0.00022465999999999998
-1.81884, -0.000241722
-1.82883, -0.000258848
-1.83883, -0.000276036
-1.84882, -0.000293223
-1.85882, -0.000310161
-1.86881, -0.000326911
-1.8788, -0.00034328699999999995
-1.8888, -0.00035934899999999996
-1.89879, -0.00037478699999999996
-1.90879, -0.000389662
-1.91878, -0.000403912
-1.92877, -0.000417225
-1.93877, -0.0004296
-1.94876, -0.00044085
-1.95876, -0.000450851
-1.96875, -0.000459538
-1.97874, -0.000466601
-1.98874, -0.00047191299999999997
-1.99873, -0.000475226
-2.00872, -0.000476414
-2.01872, -0.000475226
-2.02871, -0.000471601
-2.03871, -0.00046541299999999997
-2.0487, -0.000456851
-2.05869, -0.000445913
-2.06869, -0.00043316299999999997
-2.07868, -0.000419038
-2.08868, -0.000403975
-2.09867, -0.00038828699999999996
-2.10866, -0.000372037
-2.11866, -0.000354974
-2.12865, -0.00033847399999999996
-2.13865, -0.000327286
-2.14864, -0.00032497399999999996
-2.15863, -0.000327724
-2.16863, -0.00033397399999999996
-2.17862, -0.000343037
-2.18861, -0.000354537
-2.19861, -0.00036791199999999997
-2.2086, -0.000382662
-2.2186, -0.00039853699999999997
-2.22859, -0.00041516299999999997
-2.23858, -0.000432225
-2.24858, -0.000449288
-2.25857, -0.000465976
-2.26857, -0.00048228899999999995
-2.27856, -0.000497539
-2.28855, -0.000511414
-2.29855, -0.0005232269999999999
-2.30854, -0.000532852
-2.31854, -0.000539852
-2.32853, -0.0005435399999999999
-2.33852, -0.0005376649999999999
-2.34852, -0.000524789
-2.35851, -0.000513164
-2.36851, -0.000502101
-2.3785, -0.0004916009999999999
-2.38849, -0.00048191399999999995
-2.39849, -0.00047266399999999997
-2.40848, -0.00046416299999999997
-2.41847, -0.000456038
-2.42847, -0.000448538
-2.43846, -0.000441476
-2.44846, -0.00043485
-2.45845, -0.000428725
-2.46844, -0.000422788
-2.47844, -0.000417413
-2.48843, -0.000412038
-2.49843, -0.000407163
-2.50842, -0.00040260000000000003
-2.49843, -0.000397975
-2.48843, -0.00039378699999999993
-2.47844, -0.00038978699999999995
-2.46844, -0.00038578699999999996
-2.45845, -0.00038216199999999996
-2.44846, -0.000378725
-2.43846, -0.000375287
-2.42847, -0.000371849
-2.41847, -0.000368787
-2.40848, -0.000365724
-2.39849, -0.00036278699999999994
-2.38849, -0.00035991199999999994
-2.3785, -0.000356724
-2.36851, -0.00035072399999999996
-2.35851, -0.00034478699999999994
-2.34852, -0.00033884899999999995
-2.33852, -0.000333036
-2.32853, -0.00032672399999999997
-2.31854, -0.00031978599999999996
-2.30854, -0.000312161
-2.29855, -0.000303723
-2.28855, -0.000293911
-2.27856, -0.000283161
-2.26857, -0.00027116
-2.25857, -0.00025791000000000003
-2.24858, -0.00024340999999999998
-2.23858, -0.000228097
-2.22859, -0.000211597
-2.2186, -0.00019428399999999997
-2.2086, -0.00017653399999999997
-2.19861, -0.000158284
-2.18861, -0.00013965799999999997
-2.17862, -0.000120971
-2.16863, -0.000102408
-2.15863, -8.43451e-05
-2.14864, -6.709480000000001e-05
-2.13865, -5.090699999999999e-05
-2.12865, -3.5969299999999995e-05
-2.11866, -2.30942e-05
-2.10866, -1.2656499999999998e-05
-2.09867, -5.03135e-06
-2.08868, -1.2188e-06
-2.07868, -1.3156399999999998e-06
-2.06869, -4.97196e-06
-2.05869, -1.1284599999999999e-05
-2.0487, -1.88597e-05
-2.03871, -2.6391e-05
-2.02871, -3.33661e-05
-2.01872, -3.96975e-05
-2.00872, -4.56601e-05
-1.99873, -5.095389999999999e-05
-1.98874, -5.54102e-05
-1.97874, -5.9329e-05
-1.96875, -6.24291e-05
-1.95876, -6.484789999999999e-05
-1.94876, -6.65979e-05
-1.93877, -6.777290000000001e-05
-1.92877, -6.836039999999999e-05
-1.91878, -6.84604e-05
-1.90879, -6.80604e-05
-1.89879, -6.717919999999999e-05
-1.8888, -6.584789999999999e-05
-1.8788, -6.40916e-05
-1.86881, -6.19228e-05
-1.85882, -5.9397799999999996e-05
-1.84882, -5.6566499999999994e-05
-1.83883, -5.34602e-05
-1.82883, -5.01351e-05
-1.81884, -4.66476e-05
-1.80885, -4.30538e-05
-1.79885, -3.94037e-05
-1.78886, -3.5766199999999996e-05
-1.77886, -3.21849e-05
-1.76887, -2.8728599999999998e-05
-1.75888, -2.5403499999999998e-05
-1.74888, -2.22847e-05
-1.73889, -1.9384699999999998e-05
-1.7289, -1.67221e-05
-1.7189, -1.43096e-05
-1.70891, -1.21533e-05
-1.69891, -1.02408e-05
-1.68892, -8.565759999999999e-06
-1.67893, -7.08449e-06
-1.66893, -5.82197e-06
-1.65894, -4.75321e-06
-1.64894, -3.8031799999999997e-06
-1.63895, -3.05316e-06
-1.62896, -2.3844199999999997e-06
-1.61896, -1.8781699999999999e-06
-1.60897, -1.41283e-06
-1.59897, -1.06095e-06
-1.58898, -7.746989999999999e-07
-1.57899, -5.42196e-07
-1.56899, -3.54068e-07
-1.559, -2.0344e-07
-1.549, -8.03137e-08
-1.53901, 1.96886e-08
-1.52902, 1.05314e-07
-1.51902, 1.69534e-07
-1.50903, 2.2778499999999997e-07
-1.49904, 2.75035e-07
-1.48904, 3.18849e-07
-1.47905, 3.55849e-07
-1.46905, 3.926e-07
-1.45906, 4.27788e-07
-1.44907, 4.68913e-07
-1.43907, 5.06539e-07
-1.42908, 5.55477e-07
-1.41908, 6.09666e-07
-1.40909, 6.71604e-07
-1.3991, 7.432299999999999e-07
-1.3891, 8.29106e-07
-1.37911, 9.26233e-07
-1.36911, 1.03423e-06
-1.35912, 1.14017e-06
-1.34913, 1.24561e-06
-1.33913, 1.33193e-06
-1.32914, 1.3942399999999998e-06
-1.31915, 1.4285499999999999e-06
-1.30915, 1.44449e-06
-1.29916, 1.44118e-06
-1.28916, 1.42999e-06
-1.27917, 1.4054899999999999e-06
-1.26918, 1.38686e-06
-1.25918, 1.36124e-06
-1.24919, 1.3427999999999999e-06
-1.23919, 1.3239899999999999e-06
-1.2292, 1.30924e-06
-1.21921, 1.29261e-06
-1.20921, 1.28418e-06
-1.19922, 1.27155e-06
-1.18922, 1.2678e-06
-1.17923, 1.2616799999999998e-06
-1.16924, 1.2627399999999998e-06
-1.15924, 1.25874e-06
-1.14925, 1.26355e-06
-1.13926, 1.2602999999999998e-06
-1.12926, 1.26743e-06
-1.11927, 1.26711e-06
-1.10927, 1.27524e-06
-1.09928, 1.2759899999999999e-06
-1.08929, 1.28474e-06
-1.07929, 1.2864299999999999e-06
-1.0693, 1.2992399999999998e-06
-1.0593, 1.3037399999999997e-06
-1.04931, 1.31836e-06
-1.03932, 1.32861e-06
-1.02932, 1.3473599999999998e-06
-1.01933, 1.3623e-06
-1.00933, 1.3841799999999999e-06
-0.99934, 1.40537e-06
-0.989347, 1.43405e-06
-0.979353, 1.45812e-06
-0.969359, 1.48512e-06
-0.959365, 1.50818e-06
-0.949371, 1.5358e-06
-0.939377, 1.55787e-06
-0.929383, 1.5836799999999998e-06
-0.919389, 1.60471e-06
-0.909395, 1.6297099999999999e-06
-0.899401, 1.64971e-06
-0.889407, 1.67659e-06
-0.879413, 1.69909e-06
-0.86942, 1.7259599999999998e-06
-0.859426, 1.74971e-06
-0.849432, 1.77596e-06
-0.839438, 1.80284e-06
-0.829444, 1.8328399999999999e-06
-0.81945, 1.8584699999999999e-06
-0.809456, 1.8878399999999998e-06
-0.799462, 1.9147199999999998e-06
-0.789468, 1.94472e-06
-0.779474, 1.97722e-06
-0.769481, 2.00909e-06
-0.759487, 2.03972e-06
-0.749493, 2.0709699999999998e-06
-0.739499, 2.10097e-06
-0.729505, 2.13034e-06
-0.719511, 2.15597e-06
-0.709517, 2.18285e-06
-0.699523, 2.20785e-06
-0.689529, 2.2341e-06
-0.679535, 2.2609699999999996e-06
-0.669541, 2.28222e-06
-0.659548, 2.3066e-06
-0.649554, 2.32847e-06
-0.63956, 2.34972e-06
-0.629566, 2.37035e-06
-0.619572, 2.39472e-06
-0.609578, 2.42097e-06
-0.599584, 2.4441e-06
-0.58959, 2.4709699999999997e-06
-0.579596, 2.50285e-06
-0.569602, 2.53223e-06
-0.559609, 2.56535e-06
-0.549615, 2.59973e-06
-0.539621, 2.63973e-06
-0.529627, 2.6703499999999998e-06
-0.519633, 2.7040999999999997e-06
-0.509639, 2.7403499999999995e-06
-0.499645, 2.77473e-06
-0.489651, 2.8084799999999997e-06
-0.479657, 2.8478599999999996e-06
-0.469663, 2.88848e-06
-0.45967, 2.9303599999999997e-06
-0.449676, 2.9672299999999997e-06
-0.439682, 3.01098e-06
-0.429688, 3.05348e-06
-0.419694, 3.09598e-06
-0.4097, 3.13661e-06
-0.399706, 3.1797399999999996e-06
-0.389712, 3.2122399999999998e-06
-0.379718, 3.24786e-06
-0.369724, 3.2753599999999998e-06
-0.359731, 3.3047399999999997e-06
-0.349737, 3.32911e-06
-0.339743, 3.35599e-06
-0.329749, 3.38099e-06
-0.319755, 3.4084899999999998e-06
-0.309761, 3.43536e-06
-0.299767, 3.46911e-06
-0.289773, 3.4978699999999996e-06
-0.279779, 3.5291199999999995e-06
-0.269785, 3.56162e-06
-0.259792, 3.59287e-06
-0.249798, 3.61412e-06
-0.239804, 3.6434899999999997e-06
-0.22981, 3.66412e-06
-0.219816, 3.6816199999999997e-06
-0.209822, 3.69099e-06
-0.199828, 3.70349e-06
-0.189834, 3.71037e-06
-0.17984, 3.71412e-06
-0.169846, 3.71475e-06
-0.159853, 3.71037e-06
-0.149859, 3.70849e-06
-0.139865, 3.7053699999999997e-06
-0.129871, 3.70099e-06
-0.119877, 3.6966199999999996e-06
-0.109883, 3.69287e-06
-0.0998891, 3.69224e-06
-0.0898951, 3.69037e-06
-0.0799013, 3.68787e-06
-0.0699075, 3.6834899999999997e-06
-0.0599135, 3.6853699999999995e-06
-0.0499196, 3.6784899999999997e-06
-0.0399256, 3.6841199999999997e-06
-0.0299316, 3.6816199999999997e-06
-0.019938, 3.6797399999999995e-06
-0.00994404, 3.67412e-06
4.99413E-05, 3.67412e-06
0.0100439, 3.66412e-06
0.0200379, 3.65912e-06
0.0300315, 3.6459899999999996e-06
0.0400255, 3.63662e-06
0.0500195, 3.62224e-06
0.0600134, 3.61037e-06
0.0700074, 3.59662e-06
0.080001, 3.58474e-06
0.089995, 3.5678699999999998e-06
0.099989, 3.55287e-06
0.109983, 3.53162e-06
0.119977, 3.5222399999999998e-06
0.129971, 3.50224e-06
0.139964, 3.48912e-06
0.149958, 3.47099e-06
0.159952, 3.45536e-06
0.169946, 3.4391099999999997e-06
0.17994, 3.42724e-06
0.189934, 3.40599e-06
0.199928, 3.3972399999999997e-06
0.209922, 3.37911e-06
0.219916, 3.3678599999999997e-06
0.22991, 3.3516099999999997e-06
0.239904, 3.34411e-06
0.249897, 3.33161e-06
0.259891, 3.3253599999999997e-06
0.269885, 3.31286e-06
0.279879, 3.31224e-06
0.289873, 3.30536e-06
0.299867, 3.3047399999999997e-06
0.309861, 3.30427e-06
0.319855, 3.30349e-06
0.329849, 3.30349e-06
0.339843, 3.30849e-06
0.349837, 3.31474e-06
0.35983, 3.3247399999999995e-06
0.369824, 3.33536e-06
0.379818, 3.3503599999999995e-06
0.389812, 3.36099e-06
0.399806, 3.38661e-06
0.4098, 3.40349e-06
0.419794, 3.43287e-06
0.429788, 3.4591199999999998e-06
0.439782, 3.49162e-06
0.449776, 3.5266199999999995e-06
0.45977, 3.57412e-06
0.469764, 3.61849e-06
0.479757, 3.6747399999999996e-06
0.489751, 3.7309899999999997e-06
0.499745, 3.80412e-06
0.509739, 3.88037e-06
0.519733, 3.9685e-06
0.529727, 4.07162e-06
0.539721, 4.18163e-06
0.549715, 4.29788e-06
0.559709, 4.426e-06
0.569703, 4.54976e-06
0.579696, 4.67163e-06
0.58969, 4.777879999999999e-06
0.599684, 4.87414e-06
0.609678, 4.94601e-06
0.619672, 5.007259999999999e-06
0.629666, 5.044139999999999e-06
0.63966, 5.075389999999999e-06
0.649654, 5.09977e-06
0.659648, 5.12039e-06
0.669642, 5.14414e-06
0.679635, 5.17227e-06
0.689629, 5.20789e-06
0.699623, 5.25602e-06
0.709617, 5.31414e-06
0.719611, 5.38665e-06
0.729605, 5.47727e-06
0.739599, 5.58727e-06
0.749593, 5.7160299999999995e-06
0.759587, 5.8779e-06
0.769581, 6.0654e-06
0.779574, 6.28103e-06
0.789568, 6.5166599999999995e-06
0.799562, 6.75667e-06
0.809556, 6.98479e-06
0.81955, 7.21105e-06
0.829544, 7.4354299999999996e-06
0.839538, 7.659799999999999e-06
0.849532, 7.88418e-06
0.859526, 8.11544e-06
0.86952, 8.34169e-06
0.879513, 8.562939999999998e-06
0.889507, 8.779199999999999e-06
0.899501, 8.98607e-06
0.909495, 9.175449999999999e-06
0.919489, 9.35171e-06
0.929483, 9.51796e-06
0.939477, 9.67983e-06
0.949471, 9.82859e-06
0.959465, 9.979839999999998e-06
0.969459, 1.01167e-05
0.979453, 1.02605e-05
0.989446, 1.0390499999999998e-05
0.99944, 1.0518e-05
1.00943, 1.06374e-05
1.01943, 1.07549e-05
1.02942, 1.0866699999999999e-05
1.03942, 1.09705e-05
1.04941, 1.10655e-05
1.0594, 1.1161699999999999e-05
1.0694, 1.1247999999999998e-05
1.07939, 1.1325499999999999e-05
1.08939, 1.14067e-05
1.09938, 1.1484899999999999e-05
1.10937, 1.15524e-05
1.11937, 1.1632999999999999e-05
1.12936, 1.1703e-05
1.13935, 1.1788e-05
1.14935, 1.18686e-05
1.15934, 1.1963599999999998e-05
1.16934, 1.2071099999999999e-05
1.17933, 1.21917e-05
1.18932, 1.2336099999999999e-05
1.19932, 1.2502999999999999e-05
1.20931, 1.27049e-05
1.21931, 1.29555e-05
1.2293, 1.3253e-05
1.23929, 1.36136e-05
1.24929, 1.4036199999999998e-05
1.25928, 1.4556800000000001e-05
1.26928, 1.51249e-05
1.27927, 1.5790599999999998e-05
1.28926, 1.65034e-05
1.29926, 1.72346e-05
1.30925, 1.7959599999999997e-05
1.31925, 1.86222e-05
1.32924, 1.9153400000000002e-05
1.33923, 1.95222e-05
1.34923, 1.97472e-05
1.35922, 1.9828399999999998e-05
1.36921, 1.9803399999999997e-05
1.37921, 1.9715900000000002e-05
1.3892, 1.95909e-05
1.3992, 1.94472e-05
1.40919, 1.93347e-05
1.41918, 1.92284e-05
1.42918, 1.9115899999999998e-05
1.43917, 1.90597e-05
1.44917, 1.90034e-05
1.45916, 1.8984699999999998e-05
1.46915, 1.8984699999999998e-05
1.47915, 1.90097e-05
1.48914, 1.90534e-05
1.49914, 1.9122199999999998e-05
1.50913, 1.92284e-05
1.51912, 1.93659e-05
1.52912, 1.9515899999999997e-05
1.53911, 1.9715900000000002e-05
1.5491, 1.9940899999999997e-05
1.5591, 2.02159e-05
1.56909, 2.04659e-05
1.57909, 2.07347e-05
1.58908, 2.0959700000000002e-05
1.59907, 2.11535e-05
1.60907, 2.12285e-05
1.61906, 2.1203399999999998e-05
1.62906, 2.1009699999999996e-05
1.63905, 2.06909e-05
1.64904, 2.02284e-05
1.65904, 1.9715900000000002e-05
1.66903, 1.9128399999999998e-05
1.67903, 1.85284e-05
1.68902, 1.7953399999999997e-05
1.69901, 1.73846e-05
1.70901, 1.68596e-05
1.719, 1.63596e-05
1.729, 1.5909599999999998e-05
1.73899, 1.54846e-05
1.74898, 1.50784e-05
1.75898, 1.47596e-05
1.76897, 1.4409599999999998e-05
1.77896, 1.41158e-05
1.78896, 1.38596e-05
1.79895, 1.36221e-05
1.80895, 1.34283e-05
1.81894, 1.32408e-05
1.82893, 1.30721e-05
1.83893, 1.29283e-05
1.84892, 1.28658e-05
1.85892, 1.27596e-05
1.86891, 1.26971e-05
1.8789, 1.26783e-05
1.8889, 1.26721e-05
1.89889, 1.2684599999999999e-05
1.90889, 1.2747099999999999e-05
1.91888, 1.27908e-05
1.92887, 1.2897099999999999e-05
1.93887, 1.29846e-05
1.94886, 1.3115799999999999e-05
1.95885, 1.32721e-05
1.96885, 1.34533e-05
1.97884, 1.36346e-05
1.98884, 1.38596e-05
1.99883, 1.4065799999999998e-05
2.00882, 1.43221e-05
1.99883, 1.1647099999999999e-05
1.98884, 9.953279999999999e-06
1.97884, 8.77826e-06
1.96885, 7.90324e-06
1.95885, 7.184479999999999e-06
1.94886, 6.62198e-06
1.93887, 6.153229999999999e-06
1.92887, 5.78446e-06
1.91888, 5.428189999999999e-06
1.90889, 5.14696e-06
1.89889, 4.90944e-06
1.8889, 4.65944e-06
1.8789, 4.4531799999999994e-06
1.86891, 4.26569e-06
1.85892, 4.10318e-06
1.84892, 3.95412e-06
1.83893, 3.80912e-06
1.82893, 3.65599e-06
1.81894, 3.53162e-06
1.80895, 3.39787e-06
1.79895, 3.27474e-06
1.78896, 3.1659899999999996e-06
1.77896, 3.0472399999999996e-06
1.76897, 2.94098e-06
1.75898, 2.8403599999999997e-06
1.74898, 2.74473e-06
1.73899, 2.6366e-06
1.729, 2.55098e-06
1.719, 2.44972e-06
1.70901, 2.3666e-06
1.69901, 2.2703499999999998e-06
1.68902, 2.18597e-06
1.67903, 2.09597e-06
1.66903, 2.0165899999999996e-06
1.65904, 1.92597e-06
1.64904, 1.84659e-06
1.63905, 1.75659e-06
1.62906, 1.6803399999999999e-06
1.61906, 1.59721e-06
1.60907, 1.52096e-06
1.59907, 1.43409e-06
1.58908, 1.35721e-06
1.57909, 1.2815799999999998e-06
1.56909, 1.20596e-06
1.5591, 1.12845e-06
1.5491, 1.0522e-06
1.53911, 9.77201e-07
1.52912, 9.10327e-07
1.51912, 8.37824e-07
1.50913, 7.76575e-07
1.49914, 7.04074e-07
1.48914, 6.49073e-07
1.47915, 5.84071e-07
1.46915, 5.30946e-07
1.45916, 4.6782e-07
1.44917, 4.17194e-07
1.43917, 3.6281799999999996e-07
1.42918, 3.14066e-07
1.41918, 2.6469199999999997e-07
1.40919, 2.2290999999999998e-07
1.3992, 1.7515900000000001e-07
1.3892, 1.3434599999999998e-07
1.37921, 9.35953e-08
1.36921, 5.95946e-08
1.35922, 1.5969e-08
1.34923, -1.53439e-08
1.33923, -5.5532099999999996e-08
1.32924, -8.40325e-08
1.31925, -1.1815799999999999e-07
1.30925, -1.4728399999999998e-07
1.29926, -1.78534e-07
1.28926, -2.04597e-07
1.27927, -2.3366e-07
1.26928, -2.63223e-07
1.25928, -2.92286e-07
1.24929, -3.14286e-07
1.23929, -3.4228599999999997e-07
1.2293, -3.64974e-07
1.21931, -3.95662e-07
1.20931, -4.1678799999999996e-07
1.19932, -4.4466299999999994e-07
1.18932, -4.6472599999999995e-07
1.17933, -4.90976e-07
1.16934, -5.10977e-07
1.15934, -5.3554e-07
1.14935, -5.57102e-07
1.13935, -5.815399999999999e-07
1.12936, -6.0104e-07
1.11937, -6.210409999999999e-07
1.10937, -6.403539999999999e-07
1.09938, -6.62791e-07
1.08939, -6.85167e-07
1.07939, -7.07917e-07
1.0694, -7.23917e-07
1.0594, -7.44168e-07
1.04941, -7.666049999999999e-07
1.03942, -7.884179999999999e-07
1.02942, -8.07919e-07
1.01943, -8.323559999999999e-07
1.00943, -8.527940000000001e-07
0.99944, -8.782319999999999e-07
0.989446, -9.03483e-07
0.979453, -9.294829999999999e-07
0.969459, -9.528579999999999e-07
0.959465, -9.81921e-07
0.949471, -1.0071699999999999e-06
0.939477, -1.0313e-06
0.929483, -1.05923e-06
0.919489, -1.08667e-06
0.909495, -1.11161e-06
0.899501, -1.1378e-06
0.889507, -1.1569899999999998e-06
0.879513, -1.18524e-06
0.86952, -1.2042999999999998e-06
0.859526, -1.22761e-06
0.849532, -1.24236e-06
0.839538, -1.26536e-06
0.829544, -1.2818e-06
0.81955, -1.3003599999999998e-06
0.809556, -1.3156099999999998e-06
0.799562, -1.3314299999999998e-06
0.789568, -1.34443e-06
0.779574, -1.36218e-06
0.769581, -1.37405e-06
0.759587, -1.38936e-06
0.749593, -1.40212e-06
0.739599, -1.41693e-06
0.729605, -1.42943e-06
0.719611, -1.4451799999999998e-06
0.709617, -1.4566799999999998e-06
0.699623, -1.4754899999999998e-06
0.689629, -1.4894899999999998e-06
0.679635, -1.50337e-06
0.669642, -1.51974e-06
0.659648, -1.53774e-06
0.649654, -1.55037e-06
0.63966, -1.5696199999999999e-06
0.629666, -1.58087e-06
0.619672, -1.59824e-06
0.609678, -1.6109299999999999e-06
0.599684, -1.62768e-06
0.58969, -1.64199e-06
0.579696, -1.65924e-06
0.569703, -1.66862e-06
0.559709, -1.6860599999999998e-06
0.549715, -1.69534e-06
0.539721, -1.70659e-06
0.529727, -1.7209599999999999e-06
0.519733, -1.7340899999999998e-06
0.509739, -1.74284e-06
0.499745, -1.75659e-06
0.489751, -1.76784e-06
0.479757, -1.7809699999999998e-06
0.469764, -1.79096e-06
0.45977, -1.80659e-06
0.449776, -1.81597e-06
0.439782, -1.83222e-06
0.429788, -1.8447199999999998e-06
0.419794, -1.86159e-06
0.4098, -1.87284e-06
0.399806, -1.8903399999999998e-06
0.389812, -1.9034699999999999e-06
0.379818, -1.92222e-06
0.369824, -1.93722e-06
0.35983, -1.9572199999999998e-06
0.349837, -1.97097e-06
0.339843, -1.99159e-06
0.329849, -2.00972e-06
0.319855, -2.0272199999999995e-06
0.309861, -2.04472e-06
0.299867, -2.0672199999999996e-06
0.289873, -2.08597e-06
0.279879, -2.10534e-06
0.269885, -2.1215999999999997e-06
0.259891, -2.14285e-06
0.249897, -2.16035e-06
0.239904, -2.1834699999999995e-06
0.22991, -2.2003499999999996e-06
0.219916, -2.2197200000000002e-06
0.209922, -2.2353499999999997e-06
0.199928, -2.25285e-06
0.189934, -2.2697199999999998e-06
0.17994, -2.28597e-06
0.169946, -2.30222e-06
0.159952, -2.3203499999999997e-06
0.149958, -2.3309700000000002e-06
0.139964, -2.3478500000000003e-06
0.129971, -2.36347e-06
0.119977, -2.37785e-06
0.109983, -2.38972e-06
0.099989, -2.4041e-06
0.089995, -2.4141e-06
0.080001, -2.42473e-06
0.0700074, -2.43535e-06
0.0600134, -2.44722e-06
0.0500195, -2.4591e-06
0.0400255, -2.4678499999999996e-06
0.0300315, -2.47473e-06
0.0200379, -2.48348e-06
0.0100439, -2.48848e-06
##END=$$ End of the data block
