##TITLE=Spectrum
##JCAMP-DX=5.00 $$ chemotion-converter-app (1.4.0)
##DATA TYPE=CYCLIC VOLTAMMETRY
##DATA CLASS=XYPOINTS
##ORIGIN=
##OWNER=
##CALCULATION_APPLIED_Y=True
##XUNITS=Voltage in V
##YUNITS=Current in A
##CYCLES=1
##TIME=15:58:21
##DATE=2019-10-25
##SCAN_RATE=2.000E-001
##SOFTWARE=PSTrace
##SOFTWARE_VERSION=5.4.1528.18404
##STEP_SIZE=1.000E-002
##VOLTAGE_START=0.000E+000
##VOLTAGE_LIMIT_ONE=-2.700E+000
##VOLTAGE_LIMIT_TWO=2.000E+000
##VOLTAGE_LIMIT_END=5.000E-001
##COMMENTS=p-Br-Ph-CO2Me_MeCN.pssession
##FIRSTX=4.99413E-05
##LASTX=0.0100439
##MINX=-2.50842
##MAXX=2.00882
##MINY=-0.0004940389999999999
##MAXY=0.00027666
##NPOINTS=904
##FIRSTY=-9.94078e-07
##XUNITS=Voltage in V
##YUNITS=Current in A
##XYPOINTS=(XY..XY)
4.99413E-05, -9.94078e-07
-0.00994404, -6.884479999999999e-07
-0.019938, -5.790709999999999e-07
-0.0299316, -5.17195e-07
-0.0399256, -4.79071e-07
-0.0499196, -4.60944e-07
-0.0599135, -4.5157e-07
-0.0699075, -4.43444e-07
-0.0799013, -4.54695e-07
-0.0898951, -4.4597599999999997e-07
-0.0998891, -4.4947599999999997e-07
-0.109883, -4.49913e-07
-0.119877, -4.4672599999999997e-07
-0.129871, -4.49538e-07
-0.139865, -4.59226e-07
-0.149859, -4.58413e-07
-0.159853, -4.65413e-07
-0.169846, -4.67913e-07
-0.17984, -4.6785099999999997e-07
-0.189834, -4.7366399999999997e-07
-0.199828, -4.829759999999999e-07
-0.209822, -4.94601e-07
-0.219816, -5.032269999999999e-07
-0.22981, -5.092269999999999e-07
-0.239804, -5.268519999999999e-07
-0.249798, -5.37602e-07
-0.259792, -5.44227e-07
-0.269785, -5.60165e-07
-0.279779, -5.71228e-07
-0.289773, -5.9429e-07
-0.299767, -6.08603e-07
-0.309761, -6.202279999999999e-07
-0.319755, -6.286659999999999e-07
-0.329749, -6.489160000000001e-07
-0.339743, -6.512909999999999e-07
-0.349737, -6.56416e-07
-0.359731, -6.69667e-07
-0.369724, -6.76104e-07
-0.379718, -6.87667e-07
-0.389712, -6.95854e-07
-0.399706, -7.17855e-07
-0.4097, -7.183549999999999e-07
-0.419694, -7.24855e-07
-0.429688, -7.4148e-07
-0.439682, -7.51105e-07
-0.449676, -7.62855e-07
-0.45967, -7.76356e-07
-0.469663, -7.952929999999999e-07
-0.479657, -8.08106e-07
-0.489651, -8.25856e-07
-0.499645, -8.39607e-07
-0.509639, -8.511069999999999e-07
-0.519633, -8.63357e-07
-0.529627, -8.7567e-07
-0.539621, -8.84482e-07
-0.549615, -9.13045e-07
-0.559609, -9.30295e-07
-0.569602, -9.43233e-07
-0.579596, -9.490459999999999e-07
-0.58959, -9.66296e-07
-0.599584, -9.807959999999999e-07
-0.609578, -9.82109e-07
-0.619572, -1.0030499999999999e-06
-0.629566, -1.02461e-06
-0.63956, -1.03805e-06
-0.649554, -1.0496700000000001e-06
-0.659548, -1.06542e-06
-0.669541, -1.0963e-06
-0.679535, -1.13561e-06
-0.689529, -1.15561e-06
-0.699523, -1.15592e-06
-0.709517, -1.1603000000000001e-06
-0.719511, -1.17167e-06
-0.729505, -1.18361e-06
-0.739499, -1.2005499999999999e-06
-0.749493, -1.22142e-06
-0.759487, -1.24224e-06
-0.769481, -1.28461e-06
-0.779474, -1.30955e-06
-0.789468, -1.3261799999999998e-06
-0.799462, -1.3452999999999999e-06
-0.809456, -1.3537999999999999e-06
-0.81945, -1.3663e-06
-0.829444, -1.3872999999999998e-06
-0.839438, -1.39655e-06
-0.849432, -1.39749e-06
-0.859426, -1.41487e-06
-0.86942, -1.4354299999999998e-06
-0.879413, -1.4450499999999998e-06
-0.889407, -1.43687e-06
-0.899401, -1.43493e-06
-0.909395, -1.4554299999999998e-06
-0.919389, -1.46787e-06
-0.929383, -1.49618e-06
-0.939377, -1.53705e-06
-0.949371, -1.56106e-06
-0.959365, -1.56899e-06
-0.969359, -1.5661799999999998e-06
-0.979353, -1.5744899999999999e-06
-0.989347, -1.59018e-06
-0.99934, -1.60537e-06
-1.00933, -1.6049299999999999e-06
-1.01933, -1.6109899999999998e-06
-1.02932, -1.61948e-06
-1.03932, -1.6318099999999998e-06
-1.04931, -1.63018e-06
-1.0593, -1.6554899999999998e-06
-1.0693, -1.64846e-06
-1.07929, -1.6322099999999999e-06
-1.08929, -1.62659e-06
-1.09928, -1.64909e-06
-1.10927, -1.67346e-06
-1.11927, -1.67284e-06
-1.12926, -1.7740899999999998e-06
-1.13926, -1.78659e-06
-1.14925, -1.80409e-06
-1.15924, -1.82972e-06
-1.16924, -1.84597e-06
-1.17923, -1.88159e-06
-1.18922, -1.92034e-06
-1.19922, -1.9459699999999997e-06
-1.20921, -1.95472e-06
-1.21921, -1.94784e-06
-1.2292, -1.94159e-06
-1.23919, -1.92284e-06
-1.24919, -1.9003399999999999e-06
-1.25918, -1.8872199999999998e-06
-1.26918, -1.87409e-06
-1.27917, -1.8659699999999998e-06
-1.28916, -1.8622199999999998e-06
-1.29916, -1.85284e-06
-1.30915, -1.84722e-06
-1.31915, -1.84659e-06
-1.32914, -1.8390899999999998e-06
-1.33913, -1.8384699999999999e-06
-1.34913, -1.8384699999999999e-06
-1.35912, -1.8378399999999998e-06
-1.36911, -1.8478399999999997e-06
-1.37911, -1.85597e-06
-1.3891, -1.86847e-06
-1.3991, -1.8822199999999999e-06
-1.40909, -1.90784e-06
-1.41908, -1.93222e-06
-1.42908, -1.95847e-06
-1.43907, -1.99284e-06
-1.44907, -2.0253399999999997e-06
-1.45906, -2.06409e-06
-1.46905, -2.10034e-06
-1.47905, -2.14347e-06
-1.48904, -2.19035e-06
-1.49904, -2.2403499999999996e-06
-1.50903, -2.3034699999999996e-06
-1.51902, -2.3653499999999997e-06
-1.52902, -2.44972e-06
-1.53901, -2.54848e-06
-1.549, -2.68723e-06
-1.559, -2.83848e-06
-1.56899, -3.04598e-06
-1.57899, -3.3191099999999995e-06
-1.58898, -3.6722399999999996e-06
-1.59897, -4.1347500000000005e-06
-1.60897, -4.743509999999999e-06
-1.61896, -5.55915e-06
-1.62896, -6.67229e-06
-1.63895, -8.17294e-06
-1.64894, -1.02055e-05
-1.65894, -1.29024e-05
-1.66893, -1.6407399999999998e-05
-1.67893, -2.0337499999999996e-05
-1.68892, -2.6378499999999998e-05
-1.69891, -3.30786e-05
-1.70891, -4.11038e-05
-1.7189, -5.0522599999999996e-05
-1.7289, -6.13541e-05
-1.73889, -7.356669999999999e-05
-1.74888, -8.716070000000001e-05
-1.75888, -0.000101973
-1.76887, -0.000117924
-1.77886, -0.00013487999999999998
-1.78886, -0.000152687
-1.79885, -0.000171118
-1.80885, -0.00018965899999999998
-1.81884, -0.000208847
-1.82883, -0.00022828499999999997
-1.83883, -0.000247535
-1.84882, -0.000266848
-1.85882, -0.000285598
-1.86881, -0.000304161
-1.8788, -0.000322911
-1.8888, -0.00034091199999999996
-1.89879, -0.000357787
-1.90879, -0.00037385
-1.91878, -0.000388787
-1.92877, -0.000401975
-1.93877, -0.000413288
-1.94876, -0.0004226
-1.95876, -0.0004296
-1.96875, -0.000433975
-1.97874, -0.000435413
-1.98874, -0.000433475
-1.99873, -0.000427975
-2.00872, -0.000418788
-2.01872, -0.00040635
-2.02871, -0.000391475
-2.03871, -0.000375287
-2.0487, -0.00035916199999999995
-2.05869, -0.000343599
-2.06869, -0.00032916099999999996
-2.07868, -0.000315849
-2.08868, -0.000303286
-2.09867, -0.000291473
-2.10866, -0.00028003500000000004
-2.11866, -0.000269348
-2.12865, -0.00025947300000000003
-2.13865, -0.00025141
-2.14864, -0.000245785
-2.15863, -0.000242723
-2.16863, -0.00024166
-2.17862, -0.000242723
-2.18861, -0.000245973
-2.19861, -0.000251723
-2.2086, -0.000260098
-2.2186, -0.000270848
-2.22859, -0.000283786
-2.23858, -0.000298661
-2.24858, -0.000315036
-2.25857, -0.000332474
-2.26857, -0.000350787
-2.27856, -0.000369662
-2.28855, -0.000388475
-2.29855, -0.000406975
-2.30854, -0.00042485
-2.31854, -0.000441663
-2.32853, -0.000456913
-2.33852, -0.000470038
-2.34852, -0.00048078899999999997
-2.35851, -0.000488601
-2.36851, -0.0004931639999999999
-2.3785, -0.0004940389999999999
-2.38849, -0.000491664
-2.39849, -0.00048660099999999997
-2.40848, -0.000480164
-2.41847, -0.00047316299999999997
-2.42847, -0.000466351
-2.43846, -0.000460038
-2.44846, -0.000454413
-2.45845, -0.00044903799999999997
-2.46844, -0.000444351
-2.47844, -0.000440101
-2.48843, -0.000435975
-2.49843, -0.00043235
-2.50842, -0.000428788
-2.49843, -0.000422663
-2.48843, -0.000417163
-2.47844, -0.000412038
-2.46844, -0.000407475
-2.45845, -0.000402725
-2.44846, -0.00039828699999999994
-2.43846, -0.000393725
-2.42847, -0.000388975
-2.41847, -0.00038416199999999996
-2.40848, -0.000379037
-2.39849, -0.000373662
-2.38849, -0.000366787
-2.3785, -0.000359787
-2.36851, -0.000350849
-2.35851, -0.000342724
-2.34852, -0.000332599
-2.33852, -0.00032066099999999997
-2.32853, -0.000308223
-2.31854, -0.000293723
-2.30854, -0.000278348
-2.29855, -0.00026216
-2.28855, -0.000245098
-2.27856, -0.000227097
-2.26857, -0.000208722
-2.25857, -0.000189972
-2.24858, -0.00017165899999999998
-2.23858, -0.00015428399999999997
-2.22859, -0.000136596
-2.2186, -0.000120908
-2.2086, -0.00010672
-2.19861, -9.509529999999999e-05
-2.18861, -8.55951e-05
-2.17862, -8.047e-05
-2.16863, -7.753239999999999e-05
-2.15863, -7.840749999999999e-05
-2.14864, -8.2345e-05
-2.13865, -8.59076e-05
-2.12865, -9.17827e-05
-2.11866, -9.678279999999998e-05
-2.10866, -0.00010222
-2.09867, -0.000106283
-2.08868, -0.00011103299999999999
-2.07868, -0.000116158
-2.06869, -0.000120221
-2.05869, -0.000125096
-2.0487, -0.000127408
-2.03871, -0.000130096
-2.02871, -0.00013278299999999998
-2.01872, -0.000134971
-2.00872, -0.00013665799999999998
-1.99873, -0.00013803299999999997
-1.98874, -0.00013890799999999998
-1.97874, -0.00013978299999999999
-1.96875, -0.000140346
-1.95876, -0.000140596
-1.94876, -0.000140408
-1.93877, -0.000140033
-1.92877, -0.000139346
-1.91878, -0.000137221
-1.90879, -0.00013503299999999998
-1.89879, -0.000131846
-1.8888, -0.000127408
-1.8788, -0.00012297099999999999
-1.86881, -0.000117283
-1.85882, -0.00011146999999999999
-1.84882, -0.00010472
-1.83883, -9.77827e-05
-1.82883, -9.07202e-05
-1.81884, -8.33451e-05
-1.80885, -7.65325e-05
-1.79885, -6.94698e-05
-1.78886, -6.27197e-05
-1.77886, -5.5782099999999996e-05
-1.76887, -4.9344499999999995e-05
-1.75888, -4.334449999999999e-05
-1.74888, -3.7719199999999996e-05
-1.73889, -3.26567e-05
-1.7289, -2.78442e-05
-1.7189, -2.39067e-05
-1.70891, -2.06784e-05
-1.69891, -1.7459599999999998e-05
-1.68892, -1.47658e-05
-1.67893, -1.2465799999999998e-05
-1.66893, -1.0503299999999998e-05
-1.65894, -8.83452e-06
-1.64894, -7.40324e-06
-1.63895, -6.26572e-06
-1.62896, -5.284449999999999e-06
-1.61896, -4.490689999999999e-06
-1.60897, -3.79694e-06
-1.59897, -3.20942e-06
-1.58898, -2.7719299999999996e-06
-1.57899, -2.3781500000000003e-06
-1.56899, -2.04659e-06
-1.559, -1.77346e-06
-1.549, -1.5365899999999998e-06
-1.53901, -1.32721e-06
-1.52902, -1.13971e-06
-1.51902, -9.85953e-07
-1.50903, -8.56576e-07
-1.49904, -7.303239999999999e-07
-1.48904, -6.353220000000001e-07
-1.47905, -5.340709999999999e-07
-1.46905, -4.5344399999999997e-07
-1.45906, -3.6656899999999995e-07
-1.44907, -3.0156599999999996e-07
-1.43907, -2.3344e-07
-1.42908, -1.76566e-07
-1.41908, -1.24721e-07
-1.40909, -7.74075e-08
-1.3991, -3.853179999999999e-08
-1.3891, 9.36985e-11
-1.37911, 2.37815e-08
-1.36911, 4.45318e-08
-1.35912, 5.928209999999999e-08
-1.34913, 6.50979e-08
-1.33913, 7.53855e-08
-1.32914, 8.57544e-08
-1.31915, 8.49232e-08
-1.30915, 8.53232e-08
-1.29916, 8.534819999999999e-08
-1.28916, 8.93607e-08
-1.27917, 9.38108e-08
-1.26918, 9.804839999999999e-08
-1.25918, 9.61671e-08
-1.24919, 9.397959999999999e-08
-1.23919, 9.06545e-08
-1.2292, 9.520459999999999e-08
-1.21921, 9.925459999999999e-08
-1.20921, 9.81359e-08
-1.19922, 9.6814e-08
-1.18922, 9.46421e-08
-1.17923, 9.52233e-08
-1.16924, 9.837959999999999e-08
-1.15924, 1.0199199999999999e-07
-1.14925, 1.03936e-07
-1.13926, 1.09749e-07
-1.12926, 1.1313e-07
-1.11927, 1.1208e-07
-1.10927, 1.13386e-07
-1.09928, 1.17161e-07
-1.08929, 1.24586e-07
-1.07929, 1.24543e-07
-1.0693, 1.28524e-07
-1.0593, 1.36036e-07
-1.04931, 1.40618e-07
-1.03932, 1.4555499999999998e-07
-1.02932, 1.34318e-07
-1.01933, 1.43905e-07
-1.00933, 1.3964899999999998e-07
-0.99934, 1.3981199999999998e-07
-0.989347, 1.43885e-07
-0.979353, 1.4947399999999998e-07
-0.969359, 1.46605e-07
-0.959365, 1.43024e-07
-0.949371, 1.4402999999999997e-07
-0.939377, 1.4772399999999998e-07
-0.929383, 1.50418e-07
-0.919389, 1.53699e-07
-0.909395, 1.5620600000000002e-07
-0.899401, 1.56918e-07
-0.889407, 1.6549299999999999e-07
-0.879413, 1.61346e-07
-0.86942, 1.66034e-07
-0.859426, 1.91034e-07
-0.849432, 1.69534e-07
-0.839438, 1.52221e-07
-0.829444, 1.44596e-07
-0.81945, 1.16471e-07
-0.809456, 1.09221e-07
-0.799462, 1.22158e-07
-0.789468, 1.2478299999999999e-07
-0.779474, 1.24033e-07
-0.769481, 1.24346e-07
-0.759487, 1.18096e-07
-0.749493, 1.1865799999999999e-07
-0.739499, 1.0496999999999999e-07
-0.729505, 1.08033e-07
-0.719511, 1.14595e-07
-0.709517, 1.23971e-07
-0.699523, 1.2478299999999999e-07
-0.689529, 1.31283e-07
-0.679535, 1.3434599999999998e-07
-0.669541, 1.43096e-07
-0.659548, 1.52658e-07
-0.649554, 1.61971e-07
-0.63956, 1.76847e-07
-0.629566, 1.87534e-07
-0.619572, 1.80846e-07
-0.609578, 1.83284e-07
-0.599584, 1.93534e-07
-0.58959, 1.9928399999999997e-07
-0.579596, 2.1147199999999998e-07
-0.569602, 2.2628499999999996e-07
-0.559609, 2.2891e-07
-0.549615, 2.28035e-07
-0.539621, 2.3441e-07
-0.529627, 2.3241e-07
-0.519633, 2.42285e-07
-0.509639, 2.54223e-07
-0.499645, 2.63035e-07
-0.489651, 2.75785e-07
-0.479657, 2.79036e-07
-0.469663, 2.8347299999999996e-07
-0.45967, 2.97661e-07
-0.449676, 3.00223e-07
-0.439682, 3.0353599999999997e-07
-0.429688, 3.1391099999999996e-07
-0.419694, 3.25724e-07
-0.4097, 3.35286e-07
-0.399706, 3.45349e-07
-0.389712, 3.52787e-07
-0.379718, 3.6928699999999996e-07
-0.369724, 3.7916199999999996e-07
-0.359731, 3.89287e-07
-0.349737, 3.9409999999999996e-07
-0.339743, 3.97225e-07
-0.329749, 4.1322499999999997e-07
-0.319755, 4.1966299999999996e-07
-0.309761, 4.32225e-07
-0.299767, 4.26163e-07
-0.289773, 4.4259999999999995e-07
-0.279779, 4.49288e-07
-0.269785, 4.49601e-07
-0.259792, 4.51913e-07
-0.249798, 4.60851e-07
-0.239804, 4.67788e-07
-0.22981, 4.7316299999999996e-07
-0.219816, 4.827259999999999e-07
-0.209822, 4.903509999999999e-07
-0.199828, 4.96601e-07
-0.189834, 5.05101e-07
-0.17984, 5.17727e-07
-0.169846, 5.28477e-07
-0.159853, 5.297269999999999e-07
-0.149859, 5.32352e-07
-0.139865, 5.451019999999999e-07
-0.129871, 5.602270000000001e-07
-0.119877, 5.61227e-07
-0.109883, 5.739769999999999e-07
-0.0998891, 5.74665e-07
-0.0898951, 5.8804e-07
-0.0799013, 5.9179e-07
-0.0699075, 5.9604e-07
-0.0599135, 6.03665e-07
-0.0499196, 6.13603e-07
-0.0399256, 6.24353e-07
-0.0299316, 6.24791e-07
-0.019938, 6.37104e-07
-0.00994404, 6.41603e-07
4.99413E-05, 6.38354e-07
0.0100439, 6.44104e-07
0.0200379, 6.496039999999999e-07
0.0300315, 6.57854e-07
0.0400255, 6.62354e-07
0.0500195, 6.65291e-07
0.0600134, 6.732289999999999e-07
0.0700074, 6.748539999999999e-07
0.080001, 6.789789999999999e-07
0.089995, 6.832289999999999e-07
0.099989, 6.941040000000001e-07
0.109983, 7.033549999999999e-07
0.119977, 7.149799999999999e-07
0.129971, 7.359179999999999e-07
0.139964, 7.558550000000001e-07
0.149958, 7.74418e-07
0.159952, 7.940430000000001e-07
0.169946, 8.26481e-07
0.17994, 8.61357e-07
0.189934, 9.000449999999999e-07
0.199928, 9.46233e-07
0.209922, 9.99734e-07
0.219916, 1.04948e-06
0.22991, 1.11086e-06
0.239904, 1.17774e-06
0.249897, 1.25386e-06
0.259891, 1.34205e-06
0.269885, 1.45262e-06
0.279879, 1.5753099999999998e-06
0.289873, 1.7240899999999999e-06
0.299867, 1.90847e-06
0.309861, 2.1422199999999997e-06
0.319855, 2.4703499999999996e-06
0.329849, 2.89286e-06
0.339843, 3.4784899999999995e-06
0.349837, 4.2772500000000004e-06
0.35983, 5.3879e-06
0.369824, 6.902919999999999e-06
0.379818, 9.00233e-06
0.389812, 1.1812399999999999e-05
0.399806, 1.55693e-05
0.4098, 2.0279399999999998e-05
0.419794, 2.6378499999999998e-05
0.429788, 3.33349e-05
0.439782, 4.1085e-05
0.449776, 4.926639999999999e-05
0.45977, 5.74978e-05
0.469764, 6.51979e-05
0.479757, 7.194169999999999e-05
0.489751, 7.74418e-05
0.499745, 8.118559999999999e-05
0.509739, 8.25356e-05
0.519733, 8.20356e-05
0.529727, 7.99669e-05
0.539721, 7.703549999999999e-05
0.549715, 7.374169999999999e-05
0.559709, 7.05105e-05
0.569703, 6.74854e-05
0.579696, 6.48229e-05
0.58969, 6.24916e-05
0.599684, 6.0510299999999996e-05
0.609678, 5.8804e-05
0.619672, 5.72665e-05
0.629666, 5.5929e-05
0.63966, 5.456649999999999e-05
0.649654, 5.3303899999999996e-05
0.659648, 5.2141399999999995e-05
0.669642, 5.11164e-05
0.679635, 5.01914e-05
0.689629, 4.93539e-05
0.699623, 4.8766399999999994e-05
0.709617, 4.83351e-05
0.719611, 4.7972599999999995e-05
0.729605, 4.78663e-05
0.739599, 4.7891399999999993e-05
0.749593, 4.783509999999999e-05
0.759587, 4.78163e-05
0.769581, 4.7653799999999994e-05
0.779574, 4.73601e-05
0.789568, 4.70163e-05
0.799562, 4.66101e-05
0.809556, 4.61788e-05
0.81955, 4.5691299999999994e-05
0.829544, 4.51976e-05
0.839538, 4.46726e-05
0.849532, 4.41475e-05
0.859526, 4.36288e-05
0.86952, 4.30788e-05
0.879513, 4.2659999999999995e-05
0.889507, 4.22038e-05
0.899501, 4.18663e-05
0.909495, 4.15287e-05
0.919489, 4.119749999999999e-05
0.929483, 4.090379999999999e-05
0.939477, 4.061e-05
0.949471, 4.04037e-05
0.959465, 4.0235e-05
0.969459, 4.01037e-05
0.979453, 3.99975e-05
0.989446, 3.97475e-05
0.99944, 3.98162e-05
1.00943, 3.97787e-05
1.01943, 3.9572499999999994e-05
1.02942, 4.0734999999999995e-05
1.03942, 4.00287e-05
1.04941, 4.15788e-05
1.0594, 4.16538e-05
1.0694, 4.2091299999999995e-05
1.07939, 4.21913e-05
1.08939, 4.2359999999999994e-05
1.09938, 4.21913e-05
1.10937, 4.22475e-05
1.11937, 4.24538e-05
1.12936, 4.28975e-05
1.13935, 4.3085e-05
1.14935, 4.37475e-05
1.15934, 4.4028799999999994e-05
1.16934, 4.4653799999999996e-05
1.17933, 4.47913e-05
1.18932, 4.5128799999999994e-05
1.19932, 4.52601e-05
1.20931, 4.53101e-05
1.21931, 4.53163e-05
1.2293, 4.50476e-05
1.23929, 4.5153799999999994e-05
1.24929, 4.47351e-05
1.25928, 4.4647599999999996e-05
1.26928, 4.43288e-05
1.27927, 4.4047499999999995e-05
1.28926, 4.37475e-05
1.29926, 4.34975e-05
1.30925, 4.315379999999999e-05
1.31925, 4.28725e-05
1.32924, 4.259129999999999e-05
1.33923, 4.227879999999999e-05
1.34923, 4.191e-05
1.35922, 4.18288e-05
1.36921, 4.1534999999999995e-05
1.37921, 4.11225e-05
1.3892, 4.07162e-05
1.3992, 4.064119999999999e-05
1.40919, 4.01225e-05
1.41918, 3.9978700000000004e-05
1.42918, 4.0134999999999994e-05
1.43917, 3.96975e-05
1.44917, 3.953499999999999e-05
1.45916, 3.9356799999999996e-05
1.46915, 3.9116199999999997e-05
1.47915, 3.9078699999999996e-05
1.48914, 3.8741199999999994e-05
1.49914, 3.87287e-05
1.50913, 3.83912e-05
1.51912, 3.83412e-05
1.52912, 3.8185e-05
1.53911, 3.814739999999999e-05
1.5491, 3.8035e-05
1.5591, 3.8041200000000004e-05
1.56909, 3.79975e-05
1.57909, 3.80475e-05
1.58908, 3.813499999999999e-05
1.59907, 3.8291200000000004e-05
1.60907, 3.8491199999999995e-05
1.61906, 3.87537e-05
1.62906, 3.91412e-05
1.63905, 3.96037e-05
1.64904, 4.0222499999999996e-05
1.65904, 4.1009999999999995e-05
1.66903, 4.19913e-05
1.67903, 4.3234999999999995e-05
1.68902, 4.47976e-05
1.69901, 4.671009999999999e-05
1.70901, 4.899759999999999e-05
1.719, 5.16977e-05
1.729, 5.48352e-05
1.73899, 5.844149999999999e-05
1.74898, 6.25478e-05
1.75898, 6.71854e-05
1.76897, 7.24167e-05
1.77896, 7.83356e-05
1.78896, 8.50107e-05
1.79895, 9.25858e-05
1.80895, 0.000101111
1.81894, 0.00011062999999999999
1.82893, 0.00012107399999999999
1.83893, 0.00013222999999999997
1.84892, 0.000143774
1.85892, 0.00015548099999999998
1.86891, 0.000167174
1.8789, 0.00017872099999999999
1.8889, 0.000189909
1.89889, 0.000200847
1.90889, 0.00021128399999999998
1.91888, 0.00022140999999999998
1.92887, 0.000230847
1.93887, 0.00023966
1.94886, 0.000247723
1.95885, 0.00025491
1.96885, 0.000261348
1.97884, 0.00026666
1.98884, 0.000271098
1.99883, 0.000274348
2.00882, 0.00027666
1.99883, 0.000249785
1.98884, 0.00022665999999999997
1.97884, 0.000206347
1.96885, 0.000188097
1.95885, 0.000171159
1.94886, 0.00015528399999999997
1.93887, 0.00014053299999999998
1.92887, 0.000126658
1.91888, 0.000113658
1.90889, 0.000101345
1.89889, 9.02202e-05
1.8889, 7.9345e-05
1.8789, 6.965730000000001e-05
1.86891, 6.12197e-05
1.85892, 5.3281999999999996e-05
1.84892, 4.6344499999999996e-05
1.83893, 4.1281899999999995e-05
1.82893, 3.7406899999999996e-05
1.81894, 3.4906899999999996e-05
1.80895, 3.30317e-05
1.79895, 3.11911e-05
1.78896, 2.9847299999999998e-05
1.77896, 2.8722299999999998e-05
1.76897, 2.7772300000000002e-05
1.75898, 2.69535e-05
1.74898, 2.62598e-05
1.73899, 2.5691e-05
1.729, 2.5197299999999997e-05
1.719, 2.4741e-05
1.70901, 2.43973e-05
1.69901, 2.40847e-05
1.68902, 2.3815999999999997e-05
1.67903, 2.3591e-05
1.66903, 2.33972e-05
1.65904, 2.32285e-05
1.64904, 2.31035e-05
1.63905, 2.29785e-05
1.62906, 2.2865999999999998e-05
1.61906, 2.2772200000000002e-05
1.60907, 2.27097e-05
1.59907, 2.26222e-05
1.58908, 2.25847e-05
1.57909, 2.25222e-05
1.56909, 2.24972e-05
1.5591, 2.24597e-05
1.5491, 2.2428499999999997e-05
1.53911, 2.24222e-05
1.52912, 2.24222e-05
1.51912, 2.2428499999999997e-05
1.50913, 2.2434699999999997e-05
1.49914, 2.2466e-05
1.48914, 2.25035e-05
1.47915, 2.25285e-05
1.46915, 2.2572199999999997e-05
1.45916, 2.26222e-05
1.44917, 2.2666e-05
1.43917, 2.27285e-05
1.42918, 2.28035e-05
1.41918, 2.2865999999999998e-05
1.40919, 2.2941e-05
1.3992, 2.30222e-05
1.3892, 2.3116e-05
1.37921, 2.3203499999999996e-05
1.36921, 2.3290999999999998e-05
1.35922, 2.3378499999999996e-05
1.34923, 2.34722e-05
1.33923, 2.3553499999999997e-05
1.32924, 2.36472e-05
1.31925, 2.3741e-05
1.30925, 2.3841e-05
1.29926, 2.39285e-05
1.28926, 2.4022200000000002e-05
1.27927, 2.4115999999999997e-05
1.26928, 2.42097e-05
1.25928, 2.43098e-05
1.24929, 2.43973e-05
1.23929, 2.44785e-05
1.2293, 2.4540999999999998e-05
1.21931, 2.46222e-05
1.20931, 2.47097e-05
1.19932, 2.47785e-05
1.18932, 2.4841e-05
1.17933, 2.4928499999999997e-05
1.16934, 2.50035e-05
1.15934, 2.5041e-05
1.14935, 2.51223e-05
1.13935, 2.5203499999999997e-05
1.12936, 2.52285e-05
1.11937, 2.53035e-05
1.10937, 2.53473e-05
1.09938, 2.54098e-05
1.08939, 2.54348e-05
1.07939, 2.5497299999999997e-05
1.0694, 2.55285e-05
1.0594, 2.5566e-05
1.04941, 2.5616e-05
1.03942, 2.5622299999999997e-05
1.02942, 2.5672299999999998e-05
1.01943, 2.5703499999999995e-05
1.00943, 2.57223e-05
0.99944, 2.57348e-05
0.989446, 2.5759799999999997e-05
0.979453, 2.57848e-05
0.969459, 2.5790999999999998e-05
0.959465, 2.5803499999999998e-05
0.949471, 2.5815999999999998e-05
0.939477, 2.5815999999999998e-05
0.929483, 2.5815999999999998e-05
0.919489, 2.5815999999999998e-05
0.909495, 2.5815999999999998e-05
0.899501, 2.5815999999999998e-05
0.889507, 2.5809799999999998e-05
0.879513, 2.5809799999999998e-05
0.86952, 2.5803499999999998e-05
0.859526, 2.57785e-05
0.849532, 2.5765999999999997e-05
0.839538, 2.5741e-05
0.829544, 2.57223e-05
0.81955, 2.5716e-05
0.809556, 2.57098e-05
0.799562, 2.56535e-05
0.789568, 2.5628499999999997e-05
0.779574, 2.5616e-05
0.769581, 2.5591e-05
0.759587, 2.55535e-05
0.749593, 2.55223e-05
0.739599, 2.5503499999999997e-05
0.729605, 2.5447299999999996e-05
0.719611, 2.5416e-05
0.709617, 2.5384799999999998e-05
0.699623, 2.5322299999999996e-05
0.689629, 2.53035e-05
0.679635, 2.5240999999999998e-05
0.669642, 2.52098e-05
0.659648, 2.51285e-05
0.649654, 2.5078499999999997e-05
0.63966, 2.4991e-05
0.629666, 2.48785e-05
0.619672, 2.4741e-05
0.609678, 2.4559799999999998e-05
0.599684, 2.4328499999999996e-05
0.58969, 2.3984699999999998e-05
0.579696, 2.35285e-05
0.569703, 2.28535e-05
0.559709, 2.19097e-05
0.549715, 2.05847e-05
0.539721, 1.87159e-05
0.529727, 1.6147099999999997e-05
0.519733, 1.27096e-05
0.509739, 8.25951e-06
0.499745, 2.7469199999999996e-06
0.489751, -3.7781999999999997e-06
0.479757, -1.1122e-05
0.469764, -1.8984699999999998e-05
0.45977, -2.69723e-05
0.449776, -3.4659899999999997e-05
0.439782, -4.15163e-05
0.429788, -4.69476e-05
0.419794, -5.05852e-05
0.4098, -5.22664e-05
0.399806, -5.19852e-05
0.389812, -5.0185099999999995e-05
0.379818, -4.7378799999999994e-05
0.369824, -4.41663e-05
0.35983, -4.09037e-05
0.349837, -3.78037e-05
0.339843, -3.49724e-05
0.329849, -3.24224e-05
0.319855, -3.01536e-05
0.309861, -2.8122299999999997e-05
0.299867, -2.6315999999999997e-05
0.289873, -2.47097e-05
0.279879, -2.3265999999999997e-05
0.269885, -2.19597e-05
0.259891, -2.07847e-05
0.249897, -1.97034e-05
0.239904, -1.87409e-05
0.22991, -1.78534e-05
0.219916, -1.7022099999999998e-05
0.209922, -1.62534e-05
0.199928, -1.55471e-05
0.189934, -1.48846e-05
0.17994, -1.4278299999999998e-05
0.169946, -1.37033e-05
0.159952, -1.31658e-05
0.149958, -1.2659599999999998e-05
0.139964, -1.2190799999999999e-05
0.129971, -1.17408e-05
0.119977, -1.13158e-05
0.109983, -1.09158e-05
0.099989, -1.05408e-05
0.089995, -1.01783e-05
0.080001, -9.84703e-06
0.0700074, -9.51577e-06
0.0600134, -9.215769999999999e-06
0.0500195, -8.92202e-06
0.0400255, -8.64701e-06
0.0300315, -8.378259999999998e-06
0.0200379, -8.122e-06
0.0100439, -7.890749999999999e-06
##END=$$ End of the data block
