##TITLE=Spectrum
##JCAMP-DX=5.00 $$ chemotion-converter-app (1.1.0)
##DATA TYPE=CYCLIC VOLTAMMETRY
##DATA CLASS=XYPOINTS
##ORIGIN=
##OWNER=
##XUNITS=Voltage in V
##YUNITS=Current in A
##CYCLES=1
##TIME=15:58:21
##DATE=2019-10-25
##SCAN_RATE=2.000E-001
##SOFTWARE=PSTrace
##SOFTWARE_VERSION=5.4.1528.18404
##STEP_SIZE=1.000E-002
##VOLTAGE_START=0.000E+000
##VOLTAGE_LIMIT_ONE=-2.700E+000
##VOLTAGE_LIMIT_TWO=2.000E+000
##VOLTAGE_LIMIT_END=5.000E-001
##COMMENTS=/home/martint/dev/KIT/converter/chemotion-converter-app/test_files/data_files/CV/PalmSens/PSTrace-pssession/p-Br-Ph-CO2Me_MeCN.pssession
##FIRSTX=4.99413E-05
##LASTX=0.0100439
##MINX=-2.7083
##MAXX=2.00882
##MINY=-9.75484e-06
##MAXY=4.5060099999999996e-06
##NPOINTS=944
##FIRSTY=-6.27197e-07
##XUNITS=Voltage in V
##YUNITS=Current in A
##XYPOINTS=(XY..XY)
4.99413E-05, -6.27197e-07
-0.00994404, -4.771949999999999e-07
-0.019938, -4.2656899999999996e-07
-0.0299316, -4.04069e-07
-0.0399256, -3.92818e-07
-0.0499196, -3.8719399999999997e-07
-0.0599135, -3.86037e-07
-0.0699075, -3.85225e-07
-0.0799013, -3.86662e-07
-0.0898951, -3.87975e-07
-0.0998891, -3.8984999999999996e-07
-0.109883, -3.92225e-07
-0.119877, -3.9472499999999996e-07
-0.129871, -3.97225e-07
-0.139865, -4.0003699999999994e-07
-0.149859, -4.0334999999999997e-07
-0.159853, -4.06287e-07
-0.169846, -4.086e-07
-0.17984, -4.1172499999999996e-07
-0.189834, -4.1478799999999997e-07
-0.199828, -4.18538e-07
-0.209822, -4.20788e-07
-0.219816, -4.24225e-07
-0.22981, -4.2685e-07
-0.239804, -4.30663e-07
-0.249798, -4.33663e-07
-0.259792, -4.3653799999999996e-07
-0.269785, -4.40101e-07
-0.279779, -4.42788e-07
-0.289773, -4.4585099999999996e-07
-0.299767, -4.4916299999999996e-07
-0.309761, -4.51663e-07
-0.319755, -4.5497599999999996e-07
-0.329749, -4.57913e-07
-0.339743, -4.60913e-07
-0.349737, -4.63976e-07
-0.359731, -4.67413e-07
-0.369724, -4.70726e-07
-0.379718, -4.73914e-07
-0.389712, -4.76976e-07
-0.399706, -4.79976e-07
-0.4097, -4.836009999999999e-07
-0.419694, -4.86851e-07
-0.429688, -4.90226e-07
-0.439682, -4.93976e-07
-0.449676, -4.98414e-07
-0.45967, -5.014760000000001e-07
-0.469663, -5.05977e-07
-0.479657, -5.111019999999999e-07
-0.489651, -5.15852e-07
-0.499645, -5.221019999999999e-07
-0.509639, -5.277269999999999e-07
-0.519633, -5.33977e-07
-0.529627, -5.417269999999999e-07
-0.539621, -5.489770000000001e-07
-0.549615, -5.579769999999999e-07
-0.559609, -5.6754e-07
-0.569602, -5.78915e-07
-0.579596, -5.89978e-07
-0.58959, -6.0304e-07
-0.599584, -6.161659999999999e-07
-0.609578, -6.30603e-07
-0.619572, -6.44104e-07
-0.629566, -6.59104e-07
-0.63956, -6.74354e-07
-0.649554, -6.877290000000001e-07
-0.659548, -7.02042e-07
-0.669541, -7.14042e-07
-0.679535, -7.249799999999999e-07
-0.689529, -7.34105e-07
-0.699523, -7.41043e-07
-0.709517, -7.46043e-07
-0.719511, -7.500429999999999e-07
-0.729505, -7.523549999999999e-07
-0.739499, -7.542929999999999e-07
-0.749493, -7.558550000000001e-07
-0.759487, -7.577299999999999e-07
-0.769481, -7.59918e-07
-0.779474, -7.60918e-07
-0.789468, -7.61605e-07
-0.799462, -7.62105e-07
-0.809456, -7.6098e-07
-0.81945, -7.59918e-07
-0.829444, -7.576679999999999e-07
-0.839438, -7.553549999999999e-07
-0.849432, -7.51855e-07
-0.859426, -7.49105e-07
-0.86942, -7.4698e-07
-0.879413, -7.44043e-07
-0.889407, -7.41605e-07
-0.899401, -7.400429999999999e-07
-0.909395, -7.376679999999999e-07
-0.919389, -7.36855e-07
-0.929383, -7.36793e-07
-0.939377, -7.362919999999999e-07
-0.949371, -7.360419999999999e-07
-0.959365, -7.356669999999999e-07
-0.969359, -7.366679999999999e-07
-0.979353, -7.36418e-07
-0.989347, -7.37418e-07
-0.99934, -7.38418e-07
-1.00933, -7.3923e-07
-1.01933, -7.406049999999999e-07
-1.02932, -7.4148e-07
-1.03932, -7.43105e-07
-1.04931, -7.43793e-07
-1.0593, -7.455429999999999e-07
-1.0693, -7.462299999999999e-07
-1.07929, -7.47793e-07
-1.08929, -7.49293e-07
-1.09928, -7.51793e-07
-1.10927, -7.529799999999999e-07
-1.11927, -7.5448e-07
-1.12926, -7.56418e-07
-1.13926, -7.58043e-07
-1.14925, -7.591679999999999e-07
-1.15924, -7.619799999999999e-07
-1.16924, -7.625429999999999e-07
-1.17923, -7.647929999999999e-07
-1.18922, -7.667929999999999e-07
-1.19922, -7.68668e-07
-1.20921, -7.70293e-07
-1.21921, -7.72293e-07
-1.2292, -7.742309999999999e-07
-1.23919, -7.764809999999999e-07
-1.24919, -7.78418e-07
-1.25918, -7.80231e-07
-1.26918, -7.82856e-07
-1.27917, -7.84981e-07
-1.28916, -7.87606e-07
-1.29916, -7.90231e-07
-1.30915, -7.92731e-07
-1.31915, -7.952929999999999e-07
-1.32914, -7.988559999999999e-07
-1.33913, -8.017309999999999e-07
-1.34913, -8.04856e-07
-1.35912, -8.08231e-07
-1.36911, -8.11544e-07
-1.37911, -8.159809999999999e-07
-1.3891, -8.19044e-07
-1.3991, -8.23231e-07
-1.40909, -8.272939999999999e-07
-1.41908, -8.311059999999999e-07
-1.42908, -8.36232e-07
-1.43907, -8.40169e-07
-1.44907, -8.451689999999999e-07
-1.45906, -8.48982e-07
-1.46905, -8.54482e-07
-1.47905, -8.59232e-07
-1.48904, -8.635439999999999e-07
-1.49904, -8.686700000000001e-07
-1.50903, -8.736699999999999e-07
-1.51902, -8.78295e-07
-1.52902, -8.83357e-07
-1.53901, -8.88607e-07
-1.549, -8.9317e-07
-1.559, -8.972329999999999e-07
-1.56899, -9.02608e-07
-1.57899, -9.076079999999999e-07
-1.58898, -9.1242e-07
-1.59897, -9.169829999999999e-07
-1.60897, -9.22483e-07
-1.61896, -9.28108e-07
-1.62896, -9.327959999999999e-07
-1.63895, -9.381709999999999e-07
-1.64894, -9.43608e-07
-1.65894, -9.48921e-07
-1.66893, -9.540459999999999e-07
-1.67893, -9.59796e-07
-1.68892, -9.65859e-07
-1.69891, -9.714209999999999e-07
-1.70891, -9.76734e-07
-1.7189, -9.83359e-07
-1.7289, -9.89546e-07
-1.73889, -9.95359e-07
-1.74888, -1.00198e-06
-1.75888, -1.0078e-06
-1.76887, -1.01561e-06
-1.77886, -1.0216700000000001e-06
-1.78886, -1.02892e-06
-1.79885, -1.0363599999999999e-06
-1.80885, -1.04373e-06
-1.81884, -1.05155e-06
-1.82883, -1.0599799999999999e-06
-1.83883, -1.0683e-06
-1.84882, -1.07736e-06
-1.85882, -1.08599e-06
-1.86881, -1.09517e-06
-1.8788, -1.1043e-06
-1.8888, -1.1137999999999998e-06
-1.89879, -1.12236e-06
-1.90879, -1.13124e-06
-1.91878, -1.14005e-06
-1.92877, -1.14867e-06
-1.93877, -1.1569199999999998e-06
-1.94876, -1.16561e-06
-1.95876, -1.1737999999999999e-06
-1.96875, -1.18211e-06
-1.97874, -1.1901699999999999e-06
-1.98874, -1.19855e-06
-1.99873, -1.20611e-06
-2.00872, -1.2147399999999998e-06
-2.01872, -1.22361e-06
-2.02871, -1.23218e-06
-2.03871, -1.24161e-06
-2.0487, -1.25093e-06
-2.05869, -1.26049e-06
-2.06869, -1.27068e-06
-2.07868, -1.2804899999999998e-06
-2.08868, -1.2908e-06
-2.09867, -1.3023e-06
-2.10866, -1.3136799999999999e-06
-2.11866, -1.32449e-06
-2.12865, -1.3368599999999998e-06
-2.13865, -1.34861e-06
-2.14864, -1.36118e-06
-2.15863, -1.37536e-06
-2.16863, -1.3884899999999999e-06
-2.17862, -1.4031199999999999e-06
-2.18861, -1.41774e-06
-2.19861, -1.43287e-06
-2.2086, -1.4488e-06
-2.2186, -1.4648699999999997e-06
-2.22859, -1.48112e-06
-2.23858, -1.4977999999999999e-06
-2.24858, -1.5153e-06
-2.25857, -1.53312e-06
-2.26857, -1.55156e-06
-2.27856, -1.5710599999999998e-06
-2.28855, -1.5904899999999998e-06
-2.29855, -1.61112e-06
-2.30854, -1.63249e-06
-2.31854, -1.65368e-06
-2.32853, -1.67712e-06
-2.33852, -1.69846e-06
-2.34852, -1.7228399999999999e-06
-2.35851, -1.74909e-06
-2.36851, -1.7753399999999998e-06
-2.3785, -1.8022199999999998e-06
-2.38849, -1.83159e-06
-2.39849, -1.8609699999999999e-06
-2.40848, -1.89284e-06
-2.41847, -1.92472e-06
-2.42847, -1.95847e-06
-2.43846, -1.99409e-06
-2.44846, -2.0303399999999997e-06
-2.45845, -2.0697199999999996e-06
-2.46844, -2.11035e-06
-2.47844, -2.1516000000000003e-06
-2.48843, -2.1953499999999997e-06
-2.49843, -2.24097e-06
-2.50842, -2.28972e-06
-2.51841, -2.3409699999999997e-06
-2.52841, -2.39472e-06
-2.5384, -2.4503499999999998e-06
-2.5484, -2.5103499999999996e-06
-2.55839, -2.57473e-06
-2.56838, -2.6434799999999996e-06
-2.57838, -2.7184799999999998e-06
-2.58837, -2.80223e-06
-2.59836, -2.89786e-06
-2.60836, -3.0097299999999997e-06
-2.61835, -3.1459899999999998e-06
-2.62835, -3.31349e-06
-2.63834, -3.5297399999999997e-06
-2.64833, -3.81662e-06
-2.65833, -4.1985e-06
-2.66832, -4.72226e-06
-2.67832, -5.44352e-06
-2.68831, -6.445409999999999e-06
-2.6983, -7.834809999999999e-06
-2.7083, -9.75484e-06
-2.6983, -7.3348000000000005e-06
-2.68831, -5.643519999999999e-06
-2.67832, -4.43788e-06
-2.66832, -3.5716199999999995e-06
-2.65833, -2.94348e-06
-2.64833, -2.48285e-06
-2.63834, -2.1409699999999995e-06
-2.62835, -1.88534e-06
-2.61835, -1.68971e-06
-2.60836, -1.53721e-06
-2.59836, -1.41596e-06
-2.58837, -1.31846e-06
-2.57838, -1.2372099999999998e-06
-2.56838, -1.1690799999999998e-06
-2.55839, -1.1122000000000001e-06
-2.5484, -1.06158e-06
-2.5384, -1.0172e-06
-2.52841, -9.77203e-07
-2.51841, -9.415769999999999e-07
-2.50842, -9.09702e-07
-2.49843, -8.80326e-07
-2.48843, -8.52201e-07
-2.47844, -8.272e-07
-2.46844, -8.046999999999999e-07
-2.45845, -7.83449e-07
-2.44846, -7.62824e-07
-2.43846, -7.43449e-07
-2.42847, -7.253239999999999e-07
-2.41847, -7.090739999999999e-07
-2.40848, -6.92823e-07
-2.39849, -6.778229999999999e-07
-2.38849, -6.63447e-07
-2.3785, -6.503219999999999e-07
-2.36851, -6.378219999999999e-07
-2.35851, -6.25948e-07
-2.34852, -6.15947e-07
-2.33852, -6.04072e-07
-2.32853, -5.93446e-07
-2.31854, -5.84072e-07
-2.30854, -5.74071e-07
-2.29855, -5.64071e-07
-2.28855, -5.55946e-07
-2.27856, -5.47822e-07
-2.26857, -5.37821e-07
-2.25857, -5.30946e-07
-2.24858, -5.2407e-07
-2.23858, -5.15946e-07
-2.22859, -5.0907e-07
-2.2186, -5.0282e-07
-2.2086, -4.95321e-07
-2.19861, -4.8907e-07
-2.18861, -4.8157e-07
-2.17862, -4.7657e-07
-2.16863, -4.7094599999999996e-07
-2.15863, -4.6531899999999996e-07
-2.14864, -4.6032e-07
-2.13865, -4.54695e-07
-2.12865, -4.51226e-07
-2.11866, -4.46351e-07
-2.10866, -4.4141299999999996e-07
-2.09867, -4.37163e-07
-2.08868, -4.32788e-07
-2.07868, -4.28725e-07
-2.06869, -4.2409999999999994e-07
-2.05869, -4.20038e-07
-2.0487, -4.16538e-07
-2.03871, -4.1234999999999996e-07
-2.02871, -4.0835e-07
-2.01872, -4.0453699999999996e-07
-2.00872, -4.00225e-07
-1.99873, -3.95725e-07
-1.98874, -3.9266199999999997e-07
-1.97874, -3.8841199999999997e-07
-1.96875, -3.846e-07
-1.95876, -3.8091199999999994e-07
-1.94876, -3.76662e-07
-1.93877, -3.7334899999999996e-07
-1.92877, -3.69412e-07
-1.91878, -3.6503699999999996e-07
-1.90879, -3.6153699999999996e-07
-1.89879, -3.57662e-07
-1.8888, -3.5366199999999995e-07
-1.8788, -3.50474e-07
-1.86881, -3.46474e-07
-1.85882, -3.4272399999999994e-07
-1.84882, -3.39411e-07
-1.83883, -3.3597399999999996e-07
-1.82883, -3.32099e-07
-1.81884, -3.28536e-07
-1.80885, -3.24786e-07
-1.79885, -3.2184899999999996e-07
-1.78886, -3.18661e-07
-1.77886, -3.15036e-07
-1.76887, -3.12349e-07
-1.75888, -3.0903599999999996e-07
-1.74888, -3.05848e-07
-1.73889, -3.02536e-07
-1.7289, -2.99973e-07
-1.7189, -2.9597299999999995e-07
-1.70891, -2.92598e-07
-1.69891, -2.8991099999999995e-07
-1.68892, -2.86848e-07
-1.67893, -2.8334799999999995e-07
-1.66893, -2.79911e-07
-1.65894, -2.77098e-07
-1.64894, -2.73973e-07
-1.63895, -2.70598e-07
-1.62896, -2.66848e-07
-1.61896, -2.64098e-07
-1.60897, -2.60348e-07
-1.59897, -2.5741000000000003e-07
-1.58898, -2.5428499999999995e-07
-1.57899, -2.5041000000000003e-07
-1.56899, -2.47598e-07
-1.559, -2.4315999999999996e-07
-1.549, -2.40597e-07
-1.53901, -2.3672199999999997e-07
-1.52902, -2.3341e-07
-1.51902, -2.2916e-07
-1.50903, -2.26035e-07
-1.49904, -2.21972e-07
-1.48904, -2.18722e-07
-1.47905, -2.15222e-07
-1.46905, -2.1165999999999998e-07
-1.45906, -2.07159e-07
-1.44907, -2.03784e-07
-1.43907, -2.00347e-07
-1.42908, -1.96722e-07
-1.41908, -1.92972e-07
-1.40909, -1.8897199999999998e-07
-1.3991, -1.85847e-07
-1.3891, -1.8272199999999999e-07
-1.37911, -1.78659e-07
-1.36911, -1.7515900000000001e-07
-1.35912, -1.7228399999999998e-07
-1.34913, -1.68221e-07
-1.33913, -1.65971e-07
-1.32914, -1.62284e-07
-1.31915, -1.59034e-07
-1.30915, -1.5565899999999998e-07
-1.29916, -1.5290899999999998e-07
-1.28916, -1.49846e-07
-1.27917, -1.46346e-07
-1.26918, -1.4403299999999998e-07
-1.25918, -1.41158e-07
-1.24919, -1.3815799999999999e-07
-1.23919, -1.35408e-07
-1.2292, -1.32658e-07
-1.21921, -1.30346e-07
-1.20921, -1.27283e-07
-1.19922, -1.24346e-07
-1.18922, -1.21846e-07
-1.17923, -1.1959599999999998e-07
-1.16924, -1.16971e-07
-1.15924, -1.1472e-07
-1.14925, -1.1172e-07
-1.13926, -1.09408e-07
-1.12926, -1.06595e-07
-1.11927, -1.03658e-07
-1.10927, -1.01283e-07
-1.09928, -9.89703e-08
-1.08929, -9.622029999999999e-08
-1.07929, -9.41577e-08
-1.0693, -9.140769999999999e-08
-1.0593, -8.897019999999999e-08
-1.04931, -8.5345e-08
-1.03932, -8.31575e-08
-1.02932, -8.0595e-08
-1.01933, -7.76575e-08
-1.00933, -7.453239999999999e-08
-0.99934, -7.153239999999999e-08
-0.989347, -6.890739999999999e-08
-0.979353, -6.57197e-08
-0.969359, -6.24073e-08
-0.959365, -5.90947e-08
-0.949371, -5.51571e-08
-0.939377, -5.13445e-08
-0.929383, -4.7157e-08
-0.919389, -4.3969399999999997e-08
-0.909395, -3.90944e-08
-0.899401, -3.46568e-08
-0.889407, -2.9156699999999998e-08
-0.879413, -2.37347e-08
-0.86942, -1.69221e-08
-0.859426, -9.79702e-09
-0.849432, -9.90653e-10
-0.839438, 9.16576e-09
-0.829444, 2.18722e-08
-0.81945, 3.6272400000000004e-08
-0.809456, 5.2135199999999994e-08
-0.799462, 7.095419999999999e-08
-0.789468, 8.96982e-08
-0.779474, 1.0954899999999998e-07
-0.769481, 1.28343e-07
-0.759487, 1.4520499999999998e-07
-0.749493, 1.60481e-07
-0.739499, 1.73409e-07
-0.729505, 1.83284e-07
-0.719511, 1.92284e-07
-0.709517, 1.9928399999999997e-07
-0.699523, 2.05347e-07
-0.689529, 2.1140999999999999e-07
-0.679535, 2.16722e-07
-0.669541, 2.2084699999999997e-07
-0.659548, 2.23597e-07
-0.649554, 2.27472e-07
-0.63956, 2.2916e-07
-0.629566, 2.31847e-07
-0.619572, 2.3416e-07
-0.609578, 2.3641e-07
-0.599584, 2.3872199999999996e-07
-0.58959, 2.39847e-07
-0.579596, 2.42097e-07
-0.569602, 2.43785e-07
-0.559609, 2.45223e-07
-0.549615, 2.4665999999999996e-07
-0.539621, 2.4866e-07
-0.529627, 2.5103499999999997e-07
-0.519633, 2.52723e-07
-0.509639, 2.54473e-07
-0.499645, 2.5722299999999995e-07
-0.489651, 2.59473e-07
-0.479657, 2.6109799999999997e-07
-0.469663, 2.6290999999999996e-07
-0.45967, 2.6634799999999994e-07
-0.449676, 2.6809799999999997e-07
-0.439682, 2.7084799999999996e-07
-0.429688, 2.73848e-07
-0.419694, 2.75473e-07
-0.4097, 2.7791e-07
-0.399706, 2.8078599999999996e-07
-0.389712, 2.83411e-07
-0.379718, 2.86411e-07
-0.369724, 2.88536e-07
-0.359731, 2.8984799999999996e-07
-0.349737, 2.93911e-07
-0.339743, 2.96348e-07
-0.329749, 2.9897299999999996e-07
-0.319755, 3.01473e-07
-0.309761, 3.0397299999999997e-07
-0.299767, 3.06973e-07
-0.289773, 3.09661e-07
-0.279779, 3.11661e-07
-0.269785, 3.14723e-07
-0.259792, 3.17411e-07
-0.249798, 3.1984899999999997e-07
-0.239804, 3.22661e-07
-0.22981, 3.2547399999999997e-07
-0.219816, 3.2747399999999996e-07
-0.209822, 3.31286e-07
-0.199828, 3.34411e-07
-0.189834, 3.3728599999999997e-07
-0.17984, 3.4016099999999997e-07
-0.169846, 3.4328699999999997e-07
-0.159853, 3.4709899999999995e-07
-0.149859, 3.4916199999999993e-07
-0.139865, 3.52787e-07
-0.129871, 3.5622399999999995e-07
-0.119877, 3.58537e-07
-0.109883, 3.62974e-07
-0.0998891, 3.6653699999999997e-07
-0.0898951, 3.6972399999999996e-07
-0.0799013, 3.72912e-07
-0.0699075, 3.7597399999999995e-07
-0.0599135, 3.791e-07
-0.0499196, 3.81974e-07
-0.0399256, 3.8535e-07
-0.0299316, 3.8859999999999997e-07
-0.019938, 3.92225e-07
-0.00994404, 3.95662e-07
4.99413E-05, 3.9785e-07
0.0100439, 4.00662e-07
0.0200379, 4.03787e-07
0.0300315, 4.0622499999999997e-07
0.0400255, 4.09287e-07
0.0500195, 4.1128799999999997e-07
0.0600134, 4.151e-07
0.0700074, 4.16975e-07
0.080001, 4.1935e-07
0.089995, 4.21225e-07
0.099989, 4.2335e-07
0.109983, 4.26225e-07
0.119977, 4.2859999999999996e-07
0.129971, 4.3009999999999997e-07
0.139964, 4.33288e-07
0.149958, 4.34475e-07
0.159952, 4.3728799999999996e-07
0.169946, 4.39163e-07
0.17994, 4.41163e-07
0.189934, 4.43975e-07
0.199928, 4.4597599999999997e-07
0.209922, 4.48101e-07
0.219916, 4.4966299999999994e-07
0.22991, 4.51726e-07
0.239904, 4.54288e-07
0.249897, 4.5647599999999996e-07
0.259891, 4.58913e-07
0.269885, 4.60851e-07
0.279879, 4.63038e-07
0.289873, 4.64476e-07
0.299867, 4.6728799999999994e-07
0.309861, 4.6828799999999996e-07
0.319855, 4.7060099999999997e-07
0.329849, 4.73538e-07
0.339843, 4.7616399999999995e-07
0.349837, 4.78851e-07
0.35983, 4.81101e-07
0.369824, 4.84726e-07
0.379818, 4.874139999999999e-07
0.389812, 4.91664e-07
0.399806, 4.96914e-07
0.4098, 5.01414e-07
0.419794, 5.06539e-07
0.429788, 5.138519999999999e-07
0.439782, 5.198519999999999e-07
0.449776, 5.290390000000001e-07
0.45977, 5.370399999999999e-07
0.469764, 5.45852e-07
0.479757, 5.559770000000001e-07
0.489751, 5.64602e-07
0.499745, 5.73478e-07
0.509739, 5.8229e-07
0.519733, 5.91415e-07
0.529727, 5.98103e-07
0.539721, 6.062279999999999e-07
0.549715, 6.12291e-07
0.559709, 6.17791e-07
0.569703, 6.22666e-07
0.579696, 6.260409999999999e-07
0.58969, 6.291029999999999e-07
0.599684, 6.321029999999999e-07
0.609678, 6.33603e-07
0.619672, 6.350409999999999e-07
0.629666, 6.366659999999999e-07
0.63966, 6.39354e-07
0.649654, 6.39853e-07
0.659648, 6.419789999999999e-07
0.669642, 6.43229e-07
0.679635, 6.45104e-07
0.689629, 6.47604e-07
0.699623, 6.47604e-07
0.709617, 6.50541e-07
0.719611, 6.52166e-07
0.729605, 6.53916e-07
0.739599, 6.56479e-07
0.749593, 6.57166e-07
0.759587, 6.59854e-07
0.769581, 6.602289999999999e-07
0.779574, 6.63604e-07
0.789568, 6.642289999999999e-07
0.799562, 6.65291e-07
0.809556, 6.67416e-07
0.81955, 6.67979e-07
0.829544, 6.698539999999999e-07
0.839538, 6.71104e-07
0.849532, 6.72916e-07
0.859526, 6.732909999999999e-07
0.86952, 6.73979e-07
0.879513, 6.764790000000001e-07
0.889507, 6.766659999999999e-07
0.899501, 6.779169999999999e-07
0.909495, 6.789169999999999e-07
0.919489, 6.798539999999999e-07
0.929483, 6.80417e-07
0.939477, 6.826039999999999e-07
0.949471, 6.83042e-07
0.959465, 6.85229e-07
0.969459, 6.87042e-07
0.979453, 6.884789999999999e-07
0.989446, 6.908539999999999e-07
0.99944, 6.93667e-07
1.00943, 6.961669999999999e-07
1.01943, 6.9998e-07
1.02942, 7.036039999999999e-07
1.03942, 7.0823e-07
1.04941, 7.12105e-07
1.0594, 7.1723e-07
1.0694, 7.216669999999999e-07
1.07939, 7.28917e-07
1.08939, 7.337299999999999e-07
1.09938, 7.419179999999999e-07
1.10937, 7.485429999999999e-07
1.11937, 7.56043e-07
1.12936, 7.647929999999999e-07
1.13935, 7.72231e-07
1.14935, 7.82293e-07
1.15934, 7.92856e-07
1.16934, 8.04481e-07
1.17933, 8.15044e-07
1.18932, 8.26669e-07
1.19932, 8.39107e-07
1.20931, 8.512939999999999e-07
1.21931, 8.658569999999999e-07
1.2293, 8.79295e-07
1.23929, 8.93545e-07
1.24929, 9.0817e-07
1.25928, 9.22045e-07
1.26928, 9.369209999999999e-07
1.27927, 9.518579999999999e-07
1.28926, 9.67046e-07
1.29926, 9.80921e-07
1.30925, 9.959839999999998e-07
1.31925, 1.01192e-06
1.32924, 1.0263e-06
1.33923, 1.04105e-06
1.34923, 1.05648e-06
1.35922, 1.0724199999999998e-06
1.36921, 1.0873600000000001e-06
1.37921, 1.10349e-06
1.3892, 1.11992e-06
1.3992, 1.1363e-06
1.40919, 1.15292e-06
1.41918, 1.16867e-06
1.42918, 1.18555e-06
1.43917, 1.2033e-06
1.44917, 1.22211e-06
1.45916, 1.23943e-06
1.46915, 1.25818e-06
1.47915, 1.2791799999999998e-06
1.48914, 1.2983e-06
1.49914, 1.31861e-06
1.50913, 1.33711e-06
1.51912, 1.35874e-06
1.52912, 1.3773e-06
1.53911, 1.39893e-06
1.5491, 1.42162e-06
1.5591, 1.4437999999999998e-06
1.56909, 1.4648e-06
1.57909, 1.48899e-06
1.58908, 1.5112399999999999e-06
1.59907, 1.53599e-06
1.60907, 1.56159e-06
1.61906, 1.5890899999999999e-06
1.62906, 1.6153399999999999e-06
1.63905, 1.64409e-06
1.64904, 1.67409e-06
1.65904, 1.70534e-06
1.66903, 1.73784e-06
1.67903, 1.77096e-06
1.68902, 1.80534e-06
1.69901, 1.84284e-06
1.70901, 1.8803399999999999e-06
1.719, 1.92097e-06
1.729, 1.9615899999999997e-06
1.73899, 2.00409e-06
1.74898, 2.04847e-06
1.75898, 2.09597e-06
1.76897, 2.1441e-06
1.77896, 2.1978399999999998e-06
1.78896, 2.25035e-06
1.79895, 2.30722e-06
1.80895, 2.36597e-06
1.81894, 2.4290999999999997e-06
1.82893, 2.49347e-06
1.83893, 2.5640999999999997e-06
1.84892, 2.6347299999999995e-06
1.85892, 2.7090999999999996e-06
1.86891, 2.7909799999999995e-06
1.8789, 2.8797299999999997e-06
1.8889, 2.96661e-06
1.89889, 3.06286e-06
1.90889, 3.1641099999999998e-06
1.91888, 3.2741099999999996e-06
1.92887, 3.37911e-06
1.93887, 3.4922399999999996e-06
1.94886, 3.61912e-06
1.95885, 3.7453699999999998e-06
1.96885, 3.8835e-06
1.97884, 4.01787e-06
1.98884, 4.17225e-06
1.99883, 4.3360000000000005e-06
2.00882, 4.5060099999999996e-06
1.99883, 3.5203700000000002e-06
1.98884, 2.87161e-06
1.97884, 2.4091e-06
1.96885, 2.0590899999999996e-06
1.95885, 1.7872099999999999e-06
1.94886, 1.5684599999999998e-06
1.93887, 1.3922099999999998e-06
1.92887, 1.24783e-06
1.91888, 1.12158e-06
1.90889, 1.0197e-06
1.89889, 9.259509999999999e-07
1.8889, 8.52201e-07
1.8789, 7.82824e-07
1.86891, 7.24699e-07
1.85892, 6.72197e-07
1.84892, 6.23448e-07
1.83893, 5.82821e-07
1.82893, 5.44071e-07
1.81894, 5.096960000000001e-07
1.80895, 4.771949999999999e-07
1.79895, 4.4531799999999996e-07
1.78896, 4.20318e-07
1.77896, 3.95944e-07
1.76897, 3.73099e-07
1.75898, 3.48974e-07
1.74898, 3.29974e-07
1.73899, 3.0984899999999996e-07
1.729, 2.9041099999999994e-07
1.719, 2.7372299999999997e-07
1.70901, 2.5716e-07
1.69901, 2.40722e-07
1.68902, 2.26847e-07
1.67903, 2.12347e-07
1.66903, 1.9809699999999998e-07
1.65904, 1.84597e-07
1.64904, 1.73159e-07
1.63905, 1.59659e-07
1.62906, 1.47596e-07
1.61906, 1.35408e-07
1.60907, 1.24721e-07
1.59907, 1.1403299999999999e-07
1.58908, 1.03595e-07
1.57909, 9.29701e-08
1.56909, 8.22201e-08
1.5591, 7.38449e-08
1.5491, 6.37197e-08
1.53911, 5.39696e-08
1.52912, 4.54695e-08
1.51912, 3.61569e-08
1.50913, 2.87817e-08
1.49914, 1.80941e-08
1.48914, 1.21565e-08
1.47915, 4.28128e-09
1.46915, -4.156349999999999e-09
1.45916, -1.22814e-08
1.44917, -1.97816e-08
1.43917, -2.7344199999999997e-08
1.42918, -3.40974e-08
1.41918, -4.14225e-08
1.40919, -4.73976e-08
1.3992, -5.31602e-08
1.3892, -6.151029999999999e-08
1.37921, -6.691660000000001e-08
1.36921, -7.26167e-08
1.35922, -7.961679999999999e-08
1.34923, -8.57544e-08
1.33923, -9.202329999999999e-08
1.32924, -9.71796e-08
1.31925, -1.0322999999999999e-07
1.30925, -1.09511e-07
1.29926, -1.1414199999999999e-07
1.28926, -1.20342e-07
1.27927, -1.26286e-07
1.26928, -1.30136e-07
1.25928, -1.3478e-07
1.24929, -1.42255e-07
1.23929, -1.45799e-07
1.2293, -1.50293e-07
1.21931, -1.55306e-07
1.20931, -1.57662e-07
1.19932, -1.6334599999999999e-07
1.18932, -1.6803399999999998e-07
1.17933, -1.71659e-07
1.16934, -1.7578399999999998e-07
1.15934, -1.8003399999999998e-07
1.14935, -1.8372199999999998e-07
1.13935, -1.8834699999999999e-07
1.12936, -1.93909e-07
1.11937, -1.96472e-07
1.10937, -2.0072200000000002e-07
1.09938, -2.03784e-07
1.08939, -2.09347e-07
1.07939, -2.1240899999999998e-07
1.0694, -2.16035e-07
1.0594, -2.2015999999999998e-07
1.04941, -2.24535e-07
1.03942, -2.2703499999999997e-07
1.02942, -2.3009699999999997e-07
1.01943, -2.3409699999999998e-07
1.00943, -2.3691e-07
0.99944, -2.3947199999999996e-07
0.989446, -2.4366e-07
0.979453, -2.4665999999999996e-07
0.969459, -2.48785e-07
0.959465, -2.51598e-07
0.949471, -2.5416e-07
0.939477, -2.56973e-07
0.929483, -2.59848e-07
0.919489, -2.6241e-07
0.909495, -2.64223e-07
0.899501, -2.68348e-07
0.889507, -2.7041e-07
0.879513, -2.7159799999999997e-07
0.86952, -2.73785e-07
0.859526, -2.75785e-07
0.849532, -2.78848e-07
0.839538, -2.81411e-07
0.829544, -2.81223e-07
0.81955, -2.84223e-07
0.809556, -2.85286e-07
0.799562, -2.86848e-07
0.789568, -2.8866099999999997e-07
0.779574, -2.9009800000000003e-07
0.769581, -2.9197299999999996e-07
0.759587, -2.93223e-07
0.749593, -2.94348e-07
0.739599, -2.9578599999999997e-07
0.729605, -2.97536e-07
0.719611, -2.98286e-07
0.709617, -2.9891099999999994e-07
0.699623, -3.00223e-07
0.689629, -3.01223e-07
0.679635, -3.02911e-07
0.669642, -3.04223e-07
0.659648, -3.05348e-07
0.649654, -3.06786e-07
0.63966, -3.0753599999999996e-07
0.629666, -3.08661e-07
0.619672, -3.1128599999999997e-07
0.609678, -3.12099e-07
0.599684, -3.14911e-07
0.58969, -3.17349e-07
0.579696, -3.19599e-07
0.569703, -3.2253599999999997e-07
0.559709, -3.24786e-07
0.549715, -3.25786e-07
0.539721, -3.2959899999999996e-07
0.529727, -3.32036e-07
0.519733, -3.34224e-07
0.509739, -3.35224e-07
0.499745, -3.36911e-07
0.489751, -3.38161e-07
0.479757, -3.39036e-07
0.469764, -3.40286e-07
0.45977, -3.41224e-07
0.449776, -3.41224e-07
0.439782, -3.42162e-07
0.429788, -3.42536e-07
0.419794, -3.44287e-07
0.4098, -3.44662e-07
0.399806, -3.45849e-07
0.389812, -3.45912e-07
0.379818, -3.47787e-07
0.369824, -3.4809899999999997e-07
0.35983, -3.49724e-07
0.349837, -3.50349e-07
0.339843, -3.51849e-07
0.329849, -3.5359899999999996e-07
0.319855, -3.54599e-07
0.309861, -3.56599e-07
0.299867, -3.5772399999999995e-07
0.289873, -3.59787e-07
0.279879, -3.6209899999999997e-07
0.269885, -3.63974e-07
0.259891, -3.65537e-07
0.249897, -3.67849e-07
0.239904, -3.69662e-07
0.22991, -3.71724e-07
0.219916, -3.74099e-07
0.209922, -3.75849e-07
0.199928, -3.7791200000000003e-07
0.189934, -3.8041199999999995e-07
0.17994, -3.8272499999999995e-07
0.169946, -3.84037e-07
0.159952, -3.86725e-07
0.149958, -3.8891199999999996e-07
0.139964, -3.91037e-07
0.129971, -3.93662e-07
0.119977, -3.95787e-07
0.109983, -3.981e-07
0.099989, -3.996e-07
0.089995, -4.01662e-07
0.080001, -4.03725e-07
0.0700074, -4.0603699999999997e-07
0.0600134, -4.08475e-07
0.0500195, -4.111e-07
0.0400255, -4.12788e-07
0.0300315, -4.1485e-07
0.0200379, -4.1685e-07
0.0100439, -4.1884999999999997e-07
##END=$$ End of the data block
