##TITLE=Spectrum
##JCAMP-DX=5.00 $$ chemotion-converter-app (1.1.0)
##DATA TYPE=CYCLIC VOLTAMMETRY
##DATA CLASS=XYPOINTS
##ORIGIN=
##OWNER=
##XUNITS=Voltage in V
##YUNITS=Current in A
##CYCLES=1
##TIME=15:58:21
##DATE=2019-10-25
##SCAN_RATE=2.000E-001
##SOFTWARE=PSTrace
##SOFTWARE_VERSION=5.4.1528.18404
##STEP_SIZE=1.000E-002
##VOLTAGE_START=0.000E+000
##VOLTAGE_LIMIT_ONE=-2.700E+000
##VOLTAGE_LIMIT_TWO=2.000E+000
##VOLTAGE_LIMIT_END=5.000E-001
##COMMENTS=/home/martint/dev/KIT/converter/chemotion-converter-app/test_files/data_files/CV/PalmSens/PSTrace-pssession/p-Br-Ph-CO2Me_MeCN.pssession
##FIRSTX=4.99413E-05
##LASTX=0.0100439
##MINX=-2.7083
##MAXX=2.00882
##MINY=-1.3853e-05
##MAXY=1.14749e-05
##NPOINTS=944
##FIRSTY=-2.61535e-06
##XUNITS=Voltage in V
##YUNITS=Current in A
##XYPOINTS=(XY..XY)
4.99413E-05, -2.61535e-06
-0.00994404, -1.80472e-06
-0.019938, -1.51721e-06
-0.0299316, -1.3865799999999999e-06
-0.0399256, -1.31283e-06
-0.0499196, -1.27408e-06
-0.0599135, -1.25221e-06
-0.0699075, -1.24533e-06
-0.0799013, -1.2403299999999998e-06
-0.0898951, -1.2415799999999998e-06
-0.0998891, -1.24721e-06
-0.109883, -1.2559599999999999e-06
-0.119877, -1.26471e-06
-0.129871, -1.2784599999999999e-06
-0.139865, -1.28471e-06
-0.149859, -1.30221e-06
-0.159853, -1.31033e-06
-0.169846, -1.32658e-06
-0.17984, -1.33721e-06
-0.189834, -1.35033e-06
-0.199828, -1.3640799999999999e-06
-0.209822, -1.37846e-06
-0.219816, -1.3840799999999999e-06
-0.22981, -1.40033e-06
-0.239804, -1.40721e-06
-0.249798, -1.42158e-06
-0.259792, -1.43408e-06
-0.269785, -1.4428399999999998e-06
-0.279779, -1.4565799999999998e-06
-0.289773, -1.4659599999999998e-06
-0.299767, -1.47471e-06
-0.309761, -1.48659e-06
-0.319755, -1.49471e-06
-0.329749, -1.50346e-06
-0.339743, -1.51159e-06
-0.349737, -1.52096e-06
-0.359731, -1.52909e-06
-0.369724, -1.53846e-06
-0.379718, -1.54284e-06
-0.389712, -1.55284e-06
-0.399706, -1.5578399999999998e-06
-0.4097, -1.5684599999999998e-06
-0.419694, -1.57346e-06
-0.429688, -1.58409e-06
-0.439682, -1.5922099999999998e-06
-0.449676, -1.5990899999999998e-06
-0.45967, -1.60346e-06
-0.469663, -1.6122099999999998e-06
-0.479657, -1.6153399999999999e-06
-0.489651, -1.62659e-06
-0.499645, -1.63471e-06
-0.509639, -1.64409e-06
-0.519633, -1.6522099999999999e-06
-0.529627, -1.6634599999999998e-06
-0.539621, -1.67221e-06
-0.549615, -1.68534e-06
-0.559609, -1.69409e-06
-0.569602, -1.70846e-06
-0.579596, -1.71971e-06
-0.58959, -1.73784e-06
-0.599584, -1.75721e-06
-0.609578, -1.7740899999999998e-06
-0.619572, -1.7915899999999999e-06
-0.629566, -1.8153399999999998e-06
-0.63956, -1.8340899999999999e-06
-0.649554, -1.86284e-06
-0.659548, -1.8809699999999999e-06
-0.669541, -1.90909e-06
-0.679535, -1.92534e-06
-0.689529, -1.95034e-06
-0.699523, -1.9640899999999997e-06
-0.709517, -1.97909e-06
-0.719511, -1.99034e-06
-0.729505, -1.99659e-06
-0.739499, -1.99972e-06
-0.749493, -2.0022199999999998e-06
-0.759487, -1.99472e-06
-0.769481, -1.99222e-06
-0.779474, -1.9828399999999997e-06
-0.789468, -1.97909e-06
-0.799462, -1.9672199999999997e-06
-0.809456, -1.96034e-06
-0.81945, -1.94722e-06
-0.829444, -1.94409e-06
-0.839438, -1.93097e-06
-0.849432, -1.92597e-06
-0.859426, -1.91534e-06
-0.86942, -1.91347e-06
-0.879413, -1.9047199999999999e-06
-0.889407, -1.9003399999999999e-06
-0.899401, -1.89534e-06
-0.909395, -1.89097e-06
-0.919389, -1.8903399999999998e-06
-0.929383, -1.88659e-06
-0.939377, -1.8822199999999999e-06
-0.949371, -1.88409e-06
-0.959365, -1.8790899999999999e-06
-0.969359, -1.8803399999999999e-06
-0.979353, -1.8778399999999999e-06
-0.989347, -1.8822199999999999e-06
-0.99934, -1.8778399999999999e-06
-1.00933, -1.8803399999999999e-06
-1.01933, -1.8797199999999999e-06
-1.02932, -1.8822199999999999e-06
-1.03932, -1.88159e-06
-1.04931, -1.88284e-06
-1.0593, -1.8822199999999999e-06
-1.0693, -1.8859699999999998e-06
-1.07929, -1.88159e-06
-1.08929, -1.8859699999999998e-06
-1.09928, -1.8878399999999998e-06
-1.10927, -1.8890899999999998e-06
-1.11927, -1.8890899999999998e-06
-1.12926, -1.89097e-06
-1.13926, -1.89534e-06
-1.14925, -1.89784e-06
-1.15924, -1.89659e-06
-1.16924, -1.9003399999999999e-06
-1.17923, -1.90284e-06
-1.18922, -1.9047199999999999e-06
-1.19922, -1.9065899999999998e-06
-1.20921, -1.91284e-06
-1.21921, -1.9147199999999998e-06
-1.2292, -1.9172199999999997e-06
-1.23919, -1.92097e-06
-1.24919, -1.92472e-06
-1.25918, -1.92659e-06
-1.26918, -1.93222e-06
-1.27917, -1.93534e-06
-1.28916, -1.94347e-06
-1.29916, -1.94472e-06
-1.30915, -1.95034e-06
-1.31915, -1.95534e-06
-1.32914, -1.9615899999999997e-06
-1.33913, -1.96284e-06
-1.34913, -1.97222e-06
-1.35912, -1.97284e-06
-1.36911, -1.97972e-06
-1.37911, -1.98722e-06
-1.3891, -1.99284e-06
-1.3991, -1.99972e-06
-1.40909, -2.00409e-06
-1.41908, -2.01159e-06
-1.42908, -2.0190899999999996e-06
-1.43907, -2.02347e-06
-1.44907, -2.02909e-06
-1.45906, -2.0359699999999997e-06
-1.46905, -2.04534e-06
-1.47905, -2.04909e-06
-1.48904, -2.05784e-06
-1.49904, -2.06597e-06
-1.50903, -2.07534e-06
-1.51902, -2.08034e-06
-1.52902, -2.08847e-06
-1.53901, -2.0965899999999997e-06
-1.549, -2.10347e-06
-1.559, -2.11222e-06
-1.56899, -2.1209699999999997e-06
-1.57899, -2.1291e-06
-1.58898, -2.13972e-06
-1.59897, -2.14785e-06
-1.60897, -2.1578499999999996e-06
-1.61896, -2.16785e-06
-1.62896, -2.17597e-06
-1.63895, -2.18535e-06
-1.64894, -2.1966e-06
-1.65894, -2.2090999999999997e-06
-1.66893, -2.21847e-06
-1.67893, -2.23347e-06
-1.68892, -2.24347e-06
-1.69891, -2.25722e-06
-1.70891, -2.2728499999999998e-06
-1.7189, -2.28535e-06
-1.7289, -2.3009699999999997e-06
-1.73889, -2.31347e-06
-1.74888, -2.32972e-06
-1.75888, -2.3466e-06
-1.76887, -2.36222e-06
-1.77886, -2.3816e-06
-1.78886, -2.3990999999999996e-06
-1.79885, -2.41535e-06
-1.80885, -2.4365999999999997e-06
-1.81884, -2.45785e-06
-1.82883, -2.4797299999999997e-06
-1.83883, -2.50285e-06
-1.84882, -2.52348e-06
-1.85882, -2.54973e-06
-1.86881, -2.57285e-06
-1.8788, -2.59723e-06
-1.8888, -2.62473e-06
-1.89879, -2.6522299999999998e-06
-1.90879, -2.6791e-06
-1.91878, -2.70973e-06
-1.92877, -2.7403499999999995e-06
-1.93877, -2.77035e-06
-1.94876, -2.8028599999999996e-06
-1.95876, -2.8284799999999996e-06
-1.96875, -2.86536e-06
-1.97874, -2.8934799999999998e-06
-1.98874, -2.92411e-06
-1.99873, -2.9566099999999996e-06
-2.00872, -2.98536e-06
-2.01872, -3.0153599999999997e-06
-2.02871, -3.04786e-06
-2.03871, -3.0791099999999997e-06
-2.0487, -3.1116100000000003e-06
-2.05869, -3.1434899999999998e-06
-2.06869, -3.17411e-06
-2.07868, -3.2084899999999996e-06
-2.08868, -3.2422399999999995e-06
-2.09867, -3.27724e-06
-2.10866, -3.31724e-06
-2.11866, -3.34974e-06
-2.12865, -3.39162e-06
-2.13865, -3.42849e-06
-2.14864, -3.46787e-06
-2.15863, -3.50787e-06
-2.16863, -3.55162e-06
-2.17862, -3.5934899999999997e-06
-2.18861, -3.63787e-06
-2.19861, -3.6866199999999997e-06
-2.2086, -3.7316199999999997e-06
-2.2186, -3.78037e-06
-2.22859, -3.82787e-06
-2.23858, -3.87725e-06
-2.24858, -3.93287e-06
-2.25857, -3.984749999999999e-06
-2.26857, -4.04037e-06
-2.27856, -4.09475e-06
-2.28855, -4.1535e-06
-2.29855, -4.2134999999999996e-06
-2.30854, -4.2735e-06
-2.31854, -4.3360000000000005e-06
-2.32853, -4.403509999999999e-06
-2.33852, -4.46913e-06
-2.34852, -4.53913e-06
-2.35851, -4.60913e-06
-2.36851, -4.68351e-06
-2.3785, -4.7597599999999995e-06
-2.38849, -4.83851e-06
-2.39849, -4.92039e-06
-2.40848, -5.00664e-06
-2.41847, -5.093519999999999e-06
-2.42847, -5.18414e-06
-2.43846, -5.27602e-06
-2.44846, -5.37539e-06
-2.45845, -5.47415e-06
-2.46844, -5.57977e-06
-2.47844, -5.6904e-06
-2.48843, -5.80165e-06
-2.49843, -5.91603e-06
-2.50842, -6.03728e-06
-2.51841, -6.16166e-06
-2.52841, -6.292279999999999e-06
-2.5384, -6.42791e-06
-2.5484, -6.56791e-06
-2.55839, -6.71729e-06
-2.56838, -6.871669999999999e-06
-2.57838, -7.034799999999999e-06
-2.58837, -7.207919999999999e-06
-2.59836, -7.3973e-06
-2.60836, -7.59855e-06
-2.61835, -7.81918e-06
-2.62835, -8.06731e-06
-2.63834, -8.35294e-06
-2.64833, -8.6917e-06
-2.65833, -9.1042e-06
-2.66832, -9.614829999999999e-06
-2.67832, -1.02742e-05
-2.68831, -1.11361e-05
-2.6983, -1.2289899999999999e-05
-2.7083, -1.3853e-05
-2.6983, -1.0814899999999999e-05
-2.68831, -8.69857e-06
-2.67832, -7.15542e-06
-2.66832, -6.005399999999999e-06
-2.65833, -5.13602e-06
-2.64833, -4.46351e-06
-2.63834, -3.9335e-06
-2.62835, -3.50974e-06
-2.61835, -3.1684899999999995e-06
-2.60836, -2.8828599999999997e-06
-2.59836, -2.64598e-06
-2.58837, -2.44097e-06
-2.57838, -2.27097e-06
-2.56838, -2.11722e-06
-2.55839, -1.98722e-06
-2.5484, -1.8690899999999998e-06
-2.5384, -1.76847e-06
-2.52841, -1.67284e-06
-2.51841, -1.59034e-06
-2.50842, -1.51221e-06
-2.49843, -1.44346e-06
-2.48843, -1.37658e-06
-2.47844, -1.31971e-06
-2.46844, -1.26221e-06
-2.45845, -1.21283e-06
-2.44846, -1.1678299999999998e-06
-2.43846, -1.12345e-06
-2.42847, -1.08158e-06
-2.41847, -1.04595e-06
-2.40848, -1.0090799999999999e-06
-2.39849, -9.74077e-07
-2.38849, -9.415769999999999e-07
-2.3785, -9.147009999999999e-07
-2.36851, -8.834519999999999e-07
-2.35851, -8.590759999999999e-07
-2.34852, -8.32826e-07
-2.33852, -8.07825e-07
-2.32853, -7.859489999999999e-07
-2.31854, -7.64074e-07
-2.30854, -7.415739999999999e-07
-2.29855, -7.22823e-07
-2.28855, -7.00948e-07
-2.27856, -6.84073e-07
-2.26857, -6.665729999999999e-07
-2.25857, -6.47198e-07
-2.24858, -6.303229999999999e-07
-2.23858, -6.13447e-07
-2.22859, -5.978210000000001e-07
-2.2186, -5.815719999999999e-07
-2.2086, -5.66571e-07
-2.19861, -5.54696e-07
-2.18861, -5.38446e-07
-2.17862, -5.25321e-07
-2.16863, -5.10321e-07
-2.15863, -4.98445e-07
-2.14864, -4.85945e-07
-2.13865, -4.7344399999999993e-07
-2.12865, -4.61569e-07
-2.11866, -4.5157e-07
-2.10866, -4.3969399999999994e-07
-2.09867, -4.28445e-07
-2.08868, -4.1734999999999996e-07
-2.07868, -4.07537e-07
-2.06869, -3.9634999999999997e-07
-2.05869, -3.8622499999999995e-07
-2.0487, -3.7447499999999997e-07
-2.03871, -3.6503699999999996e-07
-2.02871, -3.5416199999999994e-07
-2.01872, -3.4522399999999997e-07
-2.00872, -3.32849e-07
-1.99873, -3.24599e-07
-1.98874, -3.12411e-07
-1.97874, -3.0391099999999995e-07
-1.96875, -2.92036e-07
-1.95876, -2.82723e-07
-1.94876, -2.7078499999999997e-07
-1.93877, -2.62035e-07
-1.92877, -2.48223e-07
-1.91878, -2.40785e-07
-1.90879, -2.3166e-07
-1.89879, -2.21847e-07
-1.8888, -2.1178399999999999e-07
-1.8788, -2.0472199999999997e-07
-1.86881, -1.9590899999999998e-07
-1.85882, -1.86159e-07
-1.84882, -1.7722199999999997e-07
-1.83883, -1.6928399999999997e-07
-1.82883, -1.6003400000000002e-07
-1.81884, -1.5022099999999998e-07
-1.80885, -1.3947100000000002e-07
-1.79885, -1.34971e-07
-1.78886, -1.23158e-07
-1.77886, -1.1303299999999999e-07
-1.76887, -1.04095e-07
-1.75888, -9.58452e-08
-1.74888, -8.522009999999998e-08
-1.73889, -8.00325e-08
-1.7289, -6.50947e-08
-1.7189, -5.94697e-08
-1.70891, -5.04695e-08
-1.69891, -4.12195e-08
-1.68892, -3.1406599999999996e-08
-1.67893, -2.1844100000000002e-08
-1.66893, -8.90636e-09
-1.65894, -1.90639e-09
-1.64894, 9.781359999999999e-09
-1.63895, 1.8628399999999998e-08
-1.62896, 3.13036e-08
-1.61896, 3.64412e-08
-1.60897, 4.97851e-08
-1.59897, 5.8072799999999996e-08
-1.58898, 7.351679999999999e-08
-1.57899, 7.907309999999999e-08
-1.56899, 9.16858e-08
-1.559, 1.0118599999999999e-07
-1.549, 1.1141099999999999e-07
-1.53901, 1.21199e-07
-1.52902, 1.34436e-07
-1.51902, 1.43699e-07
-1.50903, 1.58412e-07
-1.49904, 1.6684599999999998e-07
-1.48904, 1.81597e-07
-1.47905, 1.90222e-07
-1.46905, 2.0347199999999998e-07
-1.45906, 2.1278499999999998e-07
-1.44907, 2.2672199999999998e-07
-1.43907, 2.32847e-07
-1.42908, 2.50222e-07
-1.41908, 2.5816e-07
-1.40909, 2.7016e-07
-1.3991, 2.79285e-07
-1.3891, 2.93848e-07
-1.37911, 3.04724e-07
-1.36911, 3.17599e-07
-1.35912, 3.25849e-07
-1.34913, 3.4078599999999997e-07
-1.33913, 3.5009899999999996e-07
-1.32914, 3.60974e-07
-1.31915, 3.7128699999999996e-07
-1.30915, 3.83662e-07
-1.29916, 3.95975e-07
-1.28916, 4.0684999999999997e-07
-1.27917, 4.1616199999999994e-07
-1.26918, 4.2703799999999994e-07
-1.25918, 4.40475e-07
-1.24919, 4.53726e-07
-1.23919, 4.64476e-07
-1.2292, 4.78351e-07
-1.21921, 4.84664e-07
-1.20921, 4.97601e-07
-1.19922, 5.05039e-07
-1.18922, 5.20602e-07
-1.17923, 5.31227e-07
-1.16924, 5.43664e-07
-1.15924, 5.50727e-07
-1.14925, 5.650399999999999e-07
-1.13926, 5.71102e-07
-1.12926, 5.866649999999999e-07
-1.11927, 5.939149999999999e-07
-1.10927, 6.077280000000001e-07
-1.09928, 6.15978e-07
-1.08929, 6.27041e-07
-1.07929, 6.36166e-07
-1.0693, 6.489789999999999e-07
-1.0593, 6.579789999999999e-07
-1.04931, 6.70979e-07
-1.03932, 6.796039999999999e-07
-1.02932, 6.885419999999999e-07
-1.01933, 6.98792e-07
-1.00933, 7.0873e-07
-0.99934, 7.201049999999999e-07
-0.989347, 7.289799999999999e-07
-0.979353, 7.39668e-07
-0.969359, 7.48668e-07
-0.959365, 7.57355e-07
-0.949371, 7.70918e-07
-0.939377, 7.77543e-07
-0.929383, 7.897309999999999e-07
-0.919389, 7.98981e-07
-0.909395, 8.13356e-07
-0.899401, 8.21419e-07
-0.889407, 8.295439999999999e-07
-0.879413, 8.451689999999999e-07
-0.86942, 8.59732e-07
-0.859426, 8.746699999999999e-07
-0.849432, 8.906699999999999e-07
-0.839438, 9.0967e-07
-0.829444, 9.33171e-07
-0.81945, 9.55858e-07
-0.809456, 9.83109e-07
-0.799462, 1.00711e-06
-0.789468, 1.0308e-06
-0.779474, 1.0548599999999998e-06
-0.769481, 1.0783599999999999e-06
-0.759487, 1.09386e-06
-0.749493, 1.1068599999999999e-06
-0.739499, 1.11511e-06
-0.729505, 1.1217399999999998e-06
-0.719511, 1.12855e-06
-0.709517, 1.13124e-06
-0.699523, 1.1311699999999999e-06
-0.689529, 1.13349e-06
-0.679535, 1.1348599999999999e-06
-0.669541, 1.1361099999999999e-06
-0.659548, 1.1345499999999998e-06
-0.649554, 1.1357399999999998e-06
-0.63956, 1.1361099999999999e-06
-0.629566, 1.1370499999999998e-06
-0.619572, 1.13674e-06
-0.609578, 1.1388e-06
-0.599584, 1.13955e-06
-0.58959, 1.14124e-06
-0.579596, 1.14249e-06
-0.569602, 1.1433e-06
-0.559609, 1.14381e-06
-0.549615, 1.14436e-06
-0.539621, 1.1451100000000001e-06
-0.529627, 1.1470499999999999e-06
-0.519633, 1.14874e-06
-0.509639, 1.15155e-06
-0.499645, 1.15517e-06
-0.489651, 1.1561699999999999e-06
-0.479657, 1.15917e-06
-0.469663, 1.1598599999999999e-06
-0.45967, 1.16492e-06
-0.449676, 1.16636e-06
-0.439682, 1.17042e-06
-0.429688, 1.17411e-06
-0.419694, 1.1774199999999999e-06
-0.4097, 1.1805499999999999e-06
-0.399706, 1.1828599999999999e-06
-0.389712, 1.18842e-06
-0.379718, 1.19536e-06
-0.369724, 1.19842e-06
-0.359731, 1.20105e-06
-0.349737, 1.21005e-06
-0.339743, 1.2139899999999999e-06
-0.329749, 1.2175499999999999e-06
-0.319755, 1.22493e-06
-0.309761, 1.2273e-06
-0.299767, 1.23886e-06
-0.289773, 1.24124e-06
-0.279779, 1.24943e-06
-0.269785, 1.25536e-06
-0.259792, 1.26343e-06
-0.249798, 1.2638e-06
-0.239804, 1.2708600000000001e-06
-0.22981, 1.28118e-06
-0.219816, 1.2887399999999999e-06
-0.209822, 1.29174e-06
-0.199828, 1.3008599999999999e-06
-0.189834, 1.30324e-06
-0.17984, 1.31211e-06
-0.169846, 1.31861e-06
-0.159853, 1.32393e-06
-0.149859, 1.3296799999999998e-06
-0.139865, 1.3389899999999997e-06
-0.129871, 1.34205e-06
-0.119877, 1.3509899999999998e-06
-0.109883, 1.3577999999999997e-06
-0.0998891, 1.36274e-06
-0.0898951, 1.37424e-06
-0.0799013, 1.3767999999999999e-06
-0.0699075, 1.3890499999999999e-06
-0.0599135, 1.3942399999999998e-06
-0.0499196, 1.40049e-06
-0.0399256, 1.40918e-06
-0.0299316, 1.4178699999999998e-06
-0.019938, 1.42524e-06
-0.00994404, 1.43537e-06
4.99413E-05, 1.44093e-06
0.0100439, 1.45174e-06
0.0200379, 1.4573e-06
0.0300315, 1.4637999999999999e-06
0.0400255, 1.4728000000000001e-06
0.0500195, 1.48493e-06
0.0600134, 1.4963e-06
0.0700074, 1.4998e-06
0.080001, 1.50687e-06
0.089995, 1.51843e-06
0.099989, 1.52943e-06
0.109983, 1.5360499999999999e-06
0.119977, 1.5460499999999998e-06
0.129971, 1.55512e-06
0.139964, 1.55949e-06
0.149958, 1.57159e-06
0.159952, 1.57971e-06
0.169946, 1.58784e-06
0.17994, 1.5940899999999998e-06
0.189934, 1.59971e-06
0.199928, 1.6097099999999999e-06
0.209922, 1.6134599999999998e-06
0.219916, 1.62284e-06
0.22991, 1.62409e-06
0.239904, 1.6340899999999999e-06
0.249897, 1.63971e-06
0.259891, 1.64784e-06
0.269885, 1.6522099999999999e-06
0.279879, 1.65721e-06
0.289873, 1.65971e-06
0.299867, 1.6634599999999998e-06
0.309861, 1.6715899999999997e-06
0.319855, 1.6778399999999999e-06
0.329849, 1.6803399999999999e-06
0.339843, 1.68409e-06
0.349837, 1.68534e-06
0.35983, 1.69596e-06
0.369824, 1.69784e-06
0.379818, 1.7009599999999998e-06
0.389812, 1.7047099999999998e-06
0.399806, 1.7128399999999998e-06
0.4098, 1.7222099999999999e-06
0.419794, 1.72659e-06
0.429788, 1.73096e-06
0.439782, 1.73909e-06
0.449776, 1.7447099999999999e-06
0.45977, 1.75346e-06
0.469764, 1.76347e-06
0.479757, 1.7715899999999998e-06
0.489751, 1.78159e-06
0.499745, 1.7928399999999998e-06
0.509739, 1.80409e-06
0.519733, 1.81597e-06
0.529727, 1.82722e-06
0.539721, 1.8378399999999998e-06
0.549715, 1.8478399999999997e-06
0.559709, 1.86409e-06
0.569703, 1.86846e-06
0.579696, 1.8803399999999999e-06
0.58969, 1.8903399999999998e-06
0.599684, 1.9034699999999999e-06
0.609678, 1.9072199999999998e-06
0.619672, 1.91597e-06
0.629666, 1.92222e-06
0.63966, 1.92597e-06
0.649654, 1.93534e-06
0.659648, 1.9403399999999997e-06
0.669642, 1.94472e-06
0.679635, 1.94972e-06
0.689629, 1.95034e-06
0.699623, 1.95409e-06
0.709617, 1.9572199999999998e-06
0.719611, 1.96097e-06
0.729605, 1.96347e-06
0.739599, 1.96847e-06
0.749593, 1.96597e-06
0.759587, 1.96847e-06
0.769581, 1.9697199999999997e-06
0.779574, 1.97409e-06
0.789568, 1.97347e-06
0.799562, 1.97722e-06
0.809556, 1.97722e-06
0.81955, 1.97972e-06
0.829544, 1.9778399999999998e-06
0.839538, 1.99034e-06
0.849532, 1.9859699999999997e-06
0.859526, 1.99159e-06
0.86952, 1.99034e-06
0.879513, 1.99597e-06
0.889507, 2.00097e-06
0.899501, 2.00347e-06
0.909495, 2.00597e-06
0.919489, 2.01222e-06
0.929483, 2.0140899999999996e-06
0.939477, 2.02347e-06
0.949471, 2.0228399999999998e-06
0.959465, 2.02909e-06
0.969459, 2.03222e-06
0.979453, 2.0384699999999996e-06
0.989446, 2.04597e-06
0.99944, 2.05159e-06
1.00943, 2.05847e-06
1.01943, 2.06409e-06
1.02942, 2.07409e-06
1.03942, 2.08659e-06
1.04941, 2.08472e-06
1.0594, 2.10097e-06
1.0694, 2.1066e-06
1.07939, 2.1190999999999998e-06
1.08939, 2.12847e-06
1.09938, 2.14347e-06
1.10937, 2.1541e-06
1.11937, 2.16409e-06
1.12936, 2.1772200000000002e-06
1.13935, 2.1991e-06
1.14935, 2.20597e-06
1.15934, 2.2241e-06
1.16934, 2.2366e-06
1.17933, 2.25597e-06
1.18932, 2.27097e-06
1.19932, 2.28972e-06
1.20931, 2.31347e-06
1.21931, 2.33785e-06
1.2293, 2.3515999999999996e-06
1.23929, 2.38035e-06
1.24929, 2.3990999999999996e-06
1.25928, 2.4241000000000002e-06
1.26928, 2.44597e-06
1.27927, 2.47473e-06
1.28926, 2.5016e-06
1.29926, 2.53098e-06
1.30925, 2.55473e-06
1.31925, 2.5840999999999995e-06
1.32924, 2.6097299999999997e-06
1.33923, 2.6441e-06
1.34923, 2.66785e-06
1.35922, 2.7065999999999996e-06
1.36921, 2.73785e-06
1.37921, 2.77848e-06
1.3892, 2.8059799999999998e-06
1.3992, 2.84598e-06
1.40919, 2.8803599999999997e-06
1.41918, 2.92411e-06
1.42918, 2.9566099999999996e-06
1.43917, 3.0047299999999998e-06
1.44917, 3.04786e-06
1.45916, 3.0897399999999997e-06
1.46915, 3.1322399999999997e-06
1.47915, 3.18786e-06
1.48914, 3.2353599999999997e-06
1.49914, 3.2834899999999997e-06
1.50913, 3.33974e-06
1.51912, 3.3991099999999996e-06
1.52912, 3.45412e-06
1.53911, 3.5184899999999996e-06
1.5491, 3.5697399999999997e-06
1.5591, 3.64224e-06
1.56909, 3.70787e-06
1.57909, 3.7785e-06
1.58908, 3.83912e-06
1.59907, 3.91412e-06
1.60907, 3.9885e-06
1.61906, 4.06787e-06
1.62906, 4.1435e-06
1.63905, 4.22788e-06
1.64904, 4.306e-06
1.65904, 4.39663e-06
1.66903, 4.487879999999999e-06
1.67903, 4.578509999999999e-06
1.68902, 4.67788e-06
1.69901, 4.779759999999999e-06
1.70901, 4.88976e-06
1.719, 5.00164e-06
1.729, 5.11101e-06
1.73899, 5.22914e-06
1.74898, 5.348519999999999e-06
1.75898, 5.48165e-06
1.76897, 5.6104e-06
1.77896, 5.7579e-06
1.78896, 5.89353e-06
1.79895, 6.03791e-06
1.80895, 6.19728e-06
1.81894, 6.3679099999999995e-06
1.82893, 6.52916e-06
1.83893, 6.6972899999999995e-06
1.84892, 6.88229e-06
1.85892, 7.08105e-06
1.86891, 7.2823e-06
1.8789, 7.49043e-06
1.8889, 7.70918e-06
1.89889, 7.94981e-06
1.90889, 8.20044e-06
1.91888, 8.45044e-06
1.92887, 8.722950000000001e-06
1.93887, 9.01295e-06
1.94886, 9.30733e-06
1.95885, 9.60233e-06
1.96885, 9.95734e-06
1.97884, 1.03023e-05
1.98884, 1.06842e-05
1.99883, 1.1068e-05
2.00882, 1.14749e-05
1.99883, 8.82232e-06
1.98884, 7.08042e-06
1.97884, 5.84978e-06
1.96885, 4.95226e-06
1.95885, 4.258499999999999e-06
1.94886, 3.6722399999999996e-06
1.93887, 3.20724e-06
1.92887, 2.86161e-06
1.91888, 2.5672299999999997e-06
1.90889, 2.29035e-06
1.89889, 2.0759699999999997e-06
1.8889, 1.88159e-06
1.8789, 1.71721e-06
1.86891, 1.58346e-06
1.85892, 1.44846e-06
1.84892, 1.3365800000000001e-06
1.83893, 1.2334599999999999e-06
1.82893, 1.13846e-06
1.81894, 1.0597e-06
1.80895, 9.80952e-07
1.79895, 9.115769999999999e-07
1.78896, 8.497e-07
1.77896, 7.85325e-07
1.76897, 7.403229999999999e-07
1.75898, 6.82824e-07
1.74898, 6.32823e-07
1.73899, 5.84071e-07
1.729, 5.38445e-07
1.719, 5.0657e-07
1.70901, 4.6344499999999995e-07
1.69901, 4.27194e-07
1.68902, 3.96569e-07
1.67903, 3.59693e-07
1.66903, 3.2281599999999997e-07
1.65904, 2.91723e-07
1.64904, 2.65973e-07
1.63905, 2.3366e-07
1.62906, 2.0772199999999999e-07
1.61906, 1.74534e-07
1.60907, 1.53346e-07
1.59907, 1.33221e-07
1.58908, 1.00783e-07
1.57909, 7.371999999999999e-08
1.56909, 5.1657e-08
1.5591, 2.7906699999999997e-08
1.5491, 6.46877e-09
1.53911, -1.6469e-08
1.52912, -3.9781799999999994e-08
1.51912, -6.19072e-08
1.50913, -8.245439999999999e-08
1.49914, -1.04261e-07
1.48914, -1.2343e-07
1.47915, -1.43299e-07
1.46915, -1.7020599999999998e-07
1.45916, -1.8565599999999998e-07
1.44917, -1.96409e-07
1.43917, -2.24222e-07
1.42918, -2.4390999999999997e-07
1.41918, -2.59223e-07
1.40919, -2.7953599999999997e-07
1.3992, -2.99473e-07
1.3892, -3.11473e-07
1.37921, -3.37349e-07
1.36921, -3.51412e-07
1.35922, -3.7297499999999996e-07
1.34923, -3.88975e-07
1.33923, -4.0584999999999994e-07
1.32924, -4.21663e-07
1.31925, -4.42851e-07
1.30925, -4.56663e-07
1.29926, -4.77976e-07
1.28926, -4.87601e-07
1.27927, -5.11039e-07
1.26928, -5.28602e-07
1.25928, -5.438519999999999e-07
1.24929, -5.54977e-07
1.23929, -5.756649999999999e-07
1.2293, -5.9379e-07
1.21931, -6.08353e-07
1.20931, -6.272279999999999e-07
1.19932, -6.437909999999999e-07
1.18932, -6.63729e-07
1.17933, -6.827919999999999e-07
1.16934, -6.96917e-07
1.15934, -7.14605e-07
1.14935, -7.21167e-07
1.13935, -7.42668e-07
1.12936, -7.6148e-07
1.11937, -7.80856e-07
1.10937, -7.954179999999999e-07
1.09938, -8.13231e-07
1.08939, -8.30294e-07
1.07939, -8.46044e-07
1.0694, -8.687319999999999e-07
1.0594, -8.86607e-07
1.04941, -9.04733e-07
1.03942, -9.16233e-07
1.02942, -9.42671e-07
1.01943, -9.58421e-07
1.00943, -9.76859e-07
0.99944, -9.93734e-07
0.989446, -1.0116099999999998e-06
0.979453, -1.03248e-06
0.969459, -1.04817e-06
0.959465, -1.06298e-06
0.949471, -1.08667e-06
0.939477, -1.10005e-06
0.929483, -1.1160499999999999e-06
0.919489, -1.1312999999999999e-06
0.909495, -1.15355e-06
0.899501, -1.1689199999999999e-06
0.889507, -1.18592e-06
0.879513, -1.20249e-06
0.86952, -1.21555e-06
0.859526, -1.23536e-06
0.849532, -1.25311e-06
0.839538, -1.2669299999999999e-06
0.829544, -1.28193e-06
0.81955, -1.29949e-06
0.809556, -1.3124899999999999e-06
0.799562, -1.3285499999999998e-06
0.789568, -1.3429299999999999e-06
0.779574, -1.3523e-06
0.769581, -1.3652999999999999e-06
0.759587, -1.3802399999999998e-06
0.749593, -1.3877999999999999e-06
0.739599, -1.40043e-06
0.729605, -1.41262e-06
0.719611, -1.42455e-06
0.709617, -1.4271799999999997e-06
0.699623, -1.4333e-06
0.689629, -1.44168e-06
0.679635, -1.4503e-06
0.669642, -1.45643e-06
0.659648, -1.46224e-06
0.649654, -1.4614899999999998e-06
0.63966, -1.46905e-06
0.629666, -1.47818e-06
0.619672, -1.4742999999999998e-06
0.609678, -1.4832399999999999e-06
0.599684, -1.4766199999999999e-06
0.58969, -1.4839899999999998e-06
0.579696, -1.4848699999999998e-06
0.569703, -1.48437e-06
0.559709, -1.49105e-06
0.549715, -1.4888699999999999e-06
0.539721, -1.49174e-06
0.529727, -1.49024e-06
0.519733, -1.4953000000000001e-06
0.509739, -1.4940500000000001e-06
0.499745, -1.49218e-06
0.489751, -1.48974e-06
0.479757, -1.48618e-06
0.469764, -1.48705e-06
0.45977, -1.48105e-06
0.449776, -1.4765499999999999e-06
0.439782, -1.4768699999999998e-06
0.429788, -1.4710499999999999e-06
0.419794, -1.46674e-06
0.4098, -1.46662e-06
0.399806, -1.4602999999999998e-06
0.389812, -1.45837e-06
0.379818, -1.4511799999999998e-06
0.369824, -1.4482999999999998e-06
0.35983, -1.44643e-06
0.349837, -1.4451799999999998e-06
0.339843, -1.43724e-06
0.329849, -1.4366199999999999e-06
0.319855, -1.43555e-06
0.309861, -1.42968e-06
0.299867, -1.4285499999999999e-06
0.289873, -1.4254899999999999e-06
0.279879, -1.4294899999999998e-06
0.269885, -1.42299e-06
0.259891, -1.4249299999999999e-06
0.249897, -1.41812e-06
0.239904, -1.4194899999999999e-06
0.22991, -1.4188e-06
0.219916, -1.42005e-06
0.209922, -1.41805e-06
0.199928, -1.4211800000000001e-06
0.189934, -1.4176200000000001e-06
0.17994, -1.42099e-06
0.169946, -1.42093e-06
0.159952, -1.42287e-06
0.149958, -1.42705e-06
0.139964, -1.4286799999999998e-06
0.129971, -1.43043e-06
0.119977, -1.4328e-06
0.109983, -1.42955e-06
0.099989, -1.43649e-06
0.089995, -1.4401799999999999e-06
0.080001, -1.44093e-06
0.0700074, -1.44537e-06
0.0600134, -1.44862e-06
0.0500195, -1.4498699999999999e-06
0.0400255, -1.45699e-06
0.0300315, -1.45387e-06
0.0200379, -1.4602999999999998e-06
0.0100439, -1.4603699999999998e-06
##END=$$ End of the data block
