##TITLE=Spectrum
##JCAMP-DX=5.00 $$ chemotion-converter-app (1.5.0)
##DATA TYPE=CYCLIC VOLTAMMETRY
##DATA CLASS=XYPOINTS
##ORIGIN=
##OWNER=
##CALCULATION_APPLIED_Y=True
##XUNITS=Voltage in V
##YUNITS=Current in A
##CYCLES=1
##TIME=15:58:21
##DATE=2019-10-25
##SCAN_RATE=2.000E-001
##SOFTWARE=PSTrace
##SOFTWARE_VERSION=5.4.1528.18404
##STEP_SIZE=1.000E-002
##VOLTAGE_START=0.000E+000
##VOLTAGE_LIMIT_ONE=-2.700E+000
##VOLTAGE_LIMIT_TWO=2.000E+000
##VOLTAGE_LIMIT_END=5.000E-001
##COMMENTS=p-Br-Ph-CO2Me_MeCN.pssession
##FIRSTX=4.99413E-05
##LASTX=0.0100439
##MINX=-2.50842
##MAXX=2.00882
##MINY=-0.0003786
##MAXY=9.59983e-06
##NPOINTS=904
##FIRSTY=-2.1916e-06
##XUNITS=Voltage in V
##YUNITS=Current in A
##XYPOINTS=(XY..XY)
4.99413E-05, -2.1916e-06
-0.00994404, -1.6390899999999998e-06
-0.019938, -1.42971e-06
-0.0299316, -1.32596e-06
-0.0399256, -1.26721e-06
-0.0499196, -1.2334599999999999e-06
-0.0599135, -1.2122099999999999e-06
-0.0699075, -1.19721e-06
-0.0799013, -1.1909599999999999e-06
-0.0898951, -1.1865799999999999e-06
-0.0998891, -1.18596e-06
-0.109883, -1.1872100000000001e-06
-0.119877, -1.1878299999999999e-06
-0.129871, -1.19158e-06
-0.139865, -1.1947099999999998e-06
-0.149859, -1.19846e-06
-0.159853, -1.20158e-06
-0.169846, -1.20596e-06
-0.17984, -1.2103299999999999e-06
-0.189834, -1.21408e-06
-0.199828, -1.21971e-06
-0.209822, -1.22408e-06
-0.219816, -1.22721e-06
-0.22981, -1.2303299999999999e-06
-0.239804, -1.23533e-06
-0.249798, -1.23908e-06
-0.259792, -1.24283e-06
-0.269785, -1.24596e-06
-0.279779, -1.24908e-06
-0.289773, -1.25346e-06
-0.299767, -1.2559599999999999e-06
-0.309761, -1.2584599999999998e-06
-0.319755, -1.2615799999999998e-06
-0.329749, -1.26471e-06
-0.339743, -1.26783e-06
-0.349737, -1.26908e-06
-0.359731, -1.27158e-06
-0.369724, -1.27471e-06
-0.379718, -1.2759599999999999e-06
-0.389712, -1.2797099999999999e-06
-0.399706, -1.28221e-06
-0.4097, -1.28408e-06
-0.419694, -1.28596e-06
-0.429688, -1.28846e-06
-0.439682, -1.29096e-06
-0.449676, -1.29408e-06
-0.45967, -1.29471e-06
-0.469663, -1.2984599999999999e-06
-0.479657, -1.3009599999999999e-06
-0.489651, -1.3028299999999998e-06
-0.499645, -1.30533e-06
-0.509639, -1.3097099999999998e-06
-0.519633, -1.31221e-06
-0.529627, -1.3153300000000001e-06
-0.539621, -1.3190799999999999e-06
-0.549615, -1.32346e-06
-0.559609, -1.3253299999999998e-06
-0.569602, -1.33158e-06
-0.579596, -1.33408e-06
-0.58959, -1.3403299999999999e-06
-0.599584, -1.3440799999999998e-06
-0.609578, -1.3484599999999998e-06
-0.619572, -1.3522099999999998e-06
-0.629566, -1.35721e-06
-0.63956, -1.36033e-06
-0.649554, -1.3640799999999999e-06
-0.659548, -1.36721e-06
-0.669541, -1.3697099999999998e-06
-0.679535, -1.3722099999999998e-06
-0.689529, -1.37408e-06
-0.699523, -1.37533e-06
-0.709517, -1.37846e-06
-0.719511, -1.37908e-06
-0.729505, -1.38033e-06
-0.739499, -1.38221e-06
-0.749493, -1.38346e-06
-0.759487, -1.3847100000000001e-06
-0.769481, -1.3872099999999999e-06
-0.779474, -1.3884599999999999e-06
-0.789468, -1.3897099999999999e-06
-0.799462, -1.39033e-06
-0.809456, -1.3934599999999998e-06
-0.81945, -1.39596e-06
-0.829444, -1.3978299999999998e-06
-0.839438, -1.39908e-06
-0.849432, -1.40158e-06
-0.859426, -1.40408e-06
-0.86942, -1.40721e-06
-0.879413, -1.40846e-06
-0.889407, -1.41158e-06
-0.899401, -1.4134599999999998e-06
-0.909395, -1.4165799999999998e-06
-0.919389, -1.41846e-06
-0.929383, -1.42096e-06
-0.939377, -1.42471e-06
-0.949371, -1.4278299999999999e-06
-0.959365, -1.43158e-06
-0.969359, -1.4334599999999999e-06
-0.979353, -1.43721e-06
-0.989347, -1.4390899999999998e-06
-0.99934, -1.44346e-06
-1.00933, -1.4459599999999997e-06
-1.01933, -1.44908e-06
-1.02932, -1.45283e-06
-1.03932, -1.45533e-06
-1.04931, -1.4572099999999999e-06
-1.0593, -1.4603399999999999e-06
-1.0693, -1.46471e-06
-1.07929, -1.46659e-06
-1.08929, -1.46971e-06
-1.09928, -1.47096e-06
-1.10927, -1.47346e-06
-1.11927, -1.4765799999999998e-06
-1.12926, -1.4790899999999999e-06
-1.13926, -1.48096e-06
-1.14925, -1.4840899999999998e-06
-1.15924, -1.48784e-06
-1.16924, -1.49159e-06
-1.17923, -1.49471e-06
-1.18922, -1.49971e-06
-1.19922, -1.50346e-06
-1.20921, -1.5084599999999998e-06
-1.21921, -1.5140899999999998e-06
-1.2292, -1.51909e-06
-1.23919, -1.5272099999999998e-06
-1.24919, -1.53284e-06
-1.25918, -1.5409600000000001e-06
-1.26918, -1.54784e-06
-1.27917, -1.55596e-06
-1.28916, -1.56534e-06
-1.29916, -1.5740899999999998e-06
-1.30915, -1.58409e-06
-1.31915, -1.5940899999999998e-06
-1.32914, -1.60659e-06
-1.33913, -1.61846e-06
-1.34913, -1.6309599999999999e-06
-1.35912, -1.64284e-06
-1.36911, -1.6565899999999999e-06
-1.37911, -1.66784e-06
-1.3891, -1.6815899999999999e-06
-1.3991, -1.69659e-06
-1.40909, -1.7128399999999998e-06
-1.41908, -1.73221e-06
-1.42908, -1.75596e-06
-1.43907, -1.78221e-06
-1.44907, -1.81472e-06
-1.45906, -1.8565899999999999e-06
-1.46905, -1.90972e-06
-1.47905, -1.97659e-06
-1.48904, -2.0647199999999996e-06
-1.49904, -2.17785e-06
-1.50903, -2.3291e-06
-1.51902, -2.52535e-06
-1.52902, -2.78286e-06
-1.53901, -3.1197400000000002e-06
-1.549, -3.55974e-06
-1.559, -4.13288e-06
-1.56899, -4.87539e-06
-1.57899, -5.8266499999999995e-06
-1.58898, -7.04917e-06
-1.59897, -8.59294e-06
-1.60897, -1.05255e-05
-1.61896, -1.29243e-05
-1.62896, -1.58568e-05
-1.63895, -1.9395e-05
-1.64894, -2.3616e-05
-1.65894, -2.85348e-05
-1.66893, -3.42162e-05
-1.67893, -4.0697499999999994e-05
-1.68892, -4.7966399999999995e-05
-1.69891, -5.6003999999999994e-05
-1.70891, -6.48229e-05
-1.7189, -7.4373e-05
-1.7289, -8.45857e-05
-1.73889, -9.54046e-05
-1.74888, -0.000106742
-1.75888, -0.00011851099999999999
-1.76887, -0.00013068
-1.77886, -0.00014308000000000002
-1.78886, -0.00015568100000000002
-1.79885, -0.00016835599999999999
-1.80885, -0.000180596
-1.81884, -0.00019315899999999998
-1.82883, -0.00020540899999999998
-1.83883, -0.00021741
-1.84882, -0.000229035
-1.85882, -0.00024015999999999998
-1.86881, -0.00025066
-1.8788, -0.000260535
-1.8888, -0.000269598
-1.89879, -0.000277723
-1.90879, -0.000284848
-1.91878, -0.000290911
-1.92877, -0.000295848
-1.93877, -0.000299473
-1.94876, -0.000301848
-1.95876, -0.000302848
-1.96875, -0.000302411
-1.97874, -0.000300598
-1.98874, -0.000297473
-1.99873, -0.000293098
-2.00872, -0.000287848
-2.01872, -0.000281536
-2.02871, -0.00027466000000000003
-2.03871, -0.000267348
-2.0487, -0.00025991
-2.05869, -0.00025241
-2.06869, -0.000245035
-2.07868, -0.00023753499999999998
-2.08868, -0.000230035
-2.09867, -0.00022215999999999997
-2.10866, -0.00021434699999999999
-2.11866, -0.000207597
-2.12865, -0.000204347
-2.13865, -0.000205659
-2.14864, -0.00021028399999999998
-2.15863, -0.000217472
-2.16863, -0.00022690999999999998
-2.17862, -0.00023815999999999998
-2.18861, -0.000250848
-2.19861, -0.00026466
-2.2086, -0.000279098
-2.2186, -0.000293786
-2.22859, -0.000308661
-2.23858, -0.00032297399999999996
-2.24858, -0.000336661
-2.25857, -0.00034909899999999996
-2.26857, -0.00035991199999999994
-2.27856, -0.000368599
-2.28855, -0.00037478699999999996
-2.29855, -0.00037810000000000003
-2.30854, -0.0003786
-2.31854, -0.00037691199999999997
-2.32853, -0.00037341199999999994
-2.33852, -0.000369224
-2.34852, -0.00036491199999999995
-2.35851, -0.00036078699999999995
-2.36851, -0.000357099
-2.3785, -0.000353662
-2.38849, -0.000350849
-2.39849, -0.000344474
-2.40848, -0.00033897399999999997
-2.41847, -0.000334036
-2.42847, -0.000329661
-2.43846, -0.000325724
-2.44846, -0.000321849
-2.45845, -0.000318661
-2.46844, -0.000315474
-2.47844, -0.000312536
-2.48843, -0.000309723
-2.49843, -0.000306973
-2.50842, -0.000304723
-2.49843, -0.000302473
-2.48843, -0.000300223
-2.47844, -0.000298223
-2.46844, -0.000296348
-2.45845, -0.000294661
-2.44846, -0.000292786
-2.43846, -0.000291348
-2.42847, -0.000289786
-2.41847, -0.000288473
-2.40848, -0.000286848
-2.39849, -0.000283973
-2.38849, -0.000280536
-2.3785, -0.000276723
-2.36851, -0.000272973
-2.35851, -0.00026966
-2.34852, -0.000265723
-2.33852, -0.000261723
-2.32853, -0.000257285
-2.31854, -0.000252723
-2.30854, -0.00024765999999999997
-2.29855, -0.00024178499999999998
-2.28855, -0.00023565999999999998
-2.27856, -0.000228472
-2.26857, -0.00022040999999999999
-2.25857, -0.000211285
-2.24858, -0.000201159
-2.23858, -0.000189909
-2.22859, -0.00017778399999999998
-2.2186, -0.000164659
-2.2086, -0.000151096
-2.19861, -0.00013690799999999998
-2.18861, -0.000122471
-2.17862, -0.00010821999999999999
-2.16863, -9.42202e-05
-2.15863, -8.096999999999999e-05
-2.14864, -6.86573e-05
-2.13865, -5.79071e-05
-2.12865, -4.890699999999999e-05
-2.11866, -4.2156899999999996e-05
-2.10866, -3.79069e-05
-2.09867, -3.63443e-05
-2.08868, -3.70944e-05
-2.07868, -3.9656899999999996e-05
-2.06869, -4.3441299999999994e-05
-2.05869, -4.73476e-05
-2.0487, -5.1328899999999996e-05
-2.03871, -5.5203999999999995e-05
-2.02871, -5.88978e-05
-2.01872, -6.22791e-05
-2.00872, -6.51979e-05
-1.99873, -6.747920000000001e-05
-1.98874, -6.91292e-05
-1.97874, -7.02355e-05
-1.96875, -7.08605e-05
-1.95876, -7.10355e-05
-1.94876, -7.0823e-05
-1.93877, -7.021040000000001e-05
-1.92877, -6.924169999999999e-05
-1.91878, -6.78917e-05
-1.90879, -6.619159999999999e-05
-1.89879, -6.417289999999999e-05
-1.8888, -6.183529999999999e-05
-1.8788, -5.92165e-05
-1.86881, -5.6360199999999996e-05
-1.85882, -5.32914e-05
-1.84882, -5.007889999999999e-05
-1.83883, -4.67351e-05
-1.82883, -4.33163e-05
-1.81884, -3.9859999999999994e-05
-1.80885, -3.64412e-05
-1.79885, -3.30661e-05
-1.78886, -2.9803599999999997e-05
-1.77886, -2.6666e-05
-1.76887, -2.3703499999999998e-05
-1.75888, -2.09159e-05
-1.74888, -1.83347e-05
-1.73889, -1.59534e-05
-1.7289, -1.37908e-05
-1.7189, -1.1847099999999999e-05
-1.70891, -1.0096999999999998e-05
-1.69891, -8.565759999999999e-06
-1.68892, -7.19699e-06
-1.67893, -6.04072e-06
-1.66893, -5.0032e-06
-1.65894, -4.14069e-06
-1.64894, -3.38442e-06
-1.63895, -2.7781699999999995e-06
-1.62896, -2.25315e-06
-1.61896, -1.7965899999999998e-06
-1.60897, -1.4359599999999998e-06
-1.59897, -1.1390800000000001e-06
-1.58898, -8.934509999999999e-07
-1.57899, -6.92198e-07
-1.56899, -5.27821e-07
-1.559, -3.92818e-07
-1.549, -2.8219199999999996e-07
-1.53901, -1.9094e-07
-1.52902, -1.1594099999999999e-07
-1.51902, -5.40638e-08
-1.50903, -6.28138e-09
-1.49904, 3.62818e-08
-1.48904, 7.25324e-08
-1.47905, 1.03033e-07
-1.46905, 1.30908e-07
-1.45906, 1.57284e-07
-1.44907, 1.81097e-07
-1.43907, 2.0522199999999998e-07
-1.42908, 2.3128499999999997e-07
-1.41908, 2.5840999999999994e-07
-1.40909, 2.8897299999999995e-07
-1.3991, 3.2216099999999994e-07
-1.3891, 3.6034899999999994e-07
-1.37911, 4.0028699999999996e-07
-1.36911, 4.431e-07
-1.35912, 4.85164e-07
-1.34913, 5.23164e-07
-1.33913, 5.550399999999999e-07
-1.32914, 5.7654e-07
-1.31915, 5.88415e-07
-1.30915, 5.93165e-07
-1.29916, 5.90728e-07
-1.28916, 5.839149999999999e-07
-1.27917, 5.762899999999999e-07
-1.26918, 5.6579e-07
-1.25918, 5.57102e-07
-1.24919, 5.46852e-07
-1.23919, 5.37977e-07
-1.2292, 5.31039e-07
-1.21921, 5.25539e-07
-1.20921, 5.192269999999999e-07
-1.19922, 5.14289e-07
-1.18922, 5.091639999999999e-07
-1.17923, 5.05539e-07
-1.16924, 5.039139999999999e-07
-1.15924, 5.01039e-07
-1.14925, 4.98164e-07
-1.13926, 4.96601e-07
-1.12926, 4.95726e-07
-1.11927, 4.93914e-07
-1.10927, 4.93726e-07
-1.09928, 4.92414e-07
-1.08929, 4.92226e-07
-1.07929, 4.91476e-07
-1.0693, 4.92601e-07
-1.0593, 4.933509999999999e-07
-1.04931, 4.956639999999999e-07
-1.03932, 4.977889999999999e-07
-1.02932, 5.001640000000001e-07
-1.01933, 5.044140000000001e-07
-1.00933, 5.08852e-07
-0.99934, 5.13977e-07
-0.989347, 5.18977e-07
-0.979353, 5.25977e-07
-0.969359, 5.309139999999999e-07
-0.959365, 5.391649999999999e-07
-0.949371, 5.450399999999999e-07
-0.939377, 5.5154e-07
-0.929383, 5.57727e-07
-0.919389, 5.64852e-07
-0.909395, 5.714149999999999e-07
-0.899401, 5.79353e-07
-0.889407, 5.86353e-07
-0.879413, 5.92415e-07
-0.86942, 6.001649999999999e-07
-0.859426, 6.077280000000001e-07
-0.849432, 6.15853e-07
-0.839438, 6.24791e-07
-0.829444, 6.31353e-07
-0.81945, 6.40604e-07
-0.809456, 6.47854e-07
-0.799462, 6.55979e-07
-0.789468, 6.65854e-07
-0.779474, 6.73354e-07
-0.769481, 6.82667e-07
-0.759487, 6.92792e-07
-0.749493, 7.01104e-07
-0.739499, 7.0873e-07
-0.729505, 7.16917e-07
-0.719511, 7.249799999999999e-07
-0.709517, 7.3023e-07
-0.699523, 7.3623e-07
-0.689529, 7.409179999999999e-07
-0.679535, 7.459799999999999e-07
-0.669541, 7.495429999999999e-07
-0.659548, 7.536049999999999e-07
-0.649554, 7.58043e-07
-0.63956, 7.618549999999999e-07
-0.629566, 7.664180000000001e-07
-0.619572, 7.71356e-07
-0.609578, 7.76231e-07
-0.599584, 7.82793e-07
-0.58959, 7.889179999999999e-07
-0.579596, 7.959179999999999e-07
-0.569602, 8.03793e-07
-0.559609, 8.10419e-07
-0.549615, 8.16356e-07
-0.539621, 8.230439999999999e-07
-0.529627, 8.29856e-07
-0.519633, 8.36357e-07
-0.509639, 8.41607e-07
-0.499645, 8.46794e-07
-0.489651, 8.51794e-07
-0.479657, 8.559189999999999e-07
-0.469663, 8.595439999999999e-07
-0.45967, 8.652939999999999e-07
-0.449676, 8.69232e-07
-0.439682, 8.74545e-07
-0.429688, 8.787319999999999e-07
-0.419694, 8.841069999999999e-07
-0.4097, 8.8842e-07
-0.399706, 8.93982e-07
-0.389712, 8.98483e-07
-0.379718, 9.023579999999999e-07
-0.369724, 9.07358e-07
-0.359731, 9.12108e-07
-0.349737, 9.142329999999999e-07
-0.339743, 9.17795e-07
-0.329749, 9.218579999999999e-07
-0.319755, 9.257329999999999e-07
-0.309761, 9.29045e-07
-0.299767, 9.329199999999999e-07
-0.289773, 9.36671e-07
-0.279779, 9.39608e-07
-0.269785, 9.445459999999999e-07
-0.259792, 9.47858e-07
-0.249798, 9.50671e-07
-0.239804, 9.53171e-07
-0.22981, 9.53733e-07
-0.219816, 9.55671e-07
-0.209822, 9.56296e-07
-0.199828, 9.560459999999998e-07
-0.189834, 9.56296e-07
-0.17984, 9.55827e-07
-0.169846, 9.55546e-07
-0.159853, 9.55421e-07
-0.149859, 9.56858e-07
-0.139865, 9.57296e-07
-0.129871, 9.58671e-07
-0.119877, 9.61046e-07
-0.109883, 9.62234e-07
-0.0998891, 9.64296e-07
-0.0898951, 9.667329999999998e-07
-0.0799013, 9.69859e-07
-0.0699075, 9.73796e-07
-0.0599135, 9.777339999999999e-07
-0.0499196, 9.80171e-07
-0.0399256, 9.862959999999999e-07
-0.0299316, 9.90421e-07
-0.019938, 9.95046e-07
-0.00994404, 1.00023e-06
4.99413E-05, 1.0055499999999998e-06
0.0100439, 1.01261e-06
0.0200379, 1.01667e-06
0.0300315, 1.02242e-06
0.0400255, 1.0278599999999999e-06
0.0500195, 1.0343e-06
0.0600134, 1.04042e-06
0.0700074, 1.0459799999999999e-06
0.080001, 1.0524199999999998e-06
0.089995, 1.0595499999999999e-06
0.099989, 1.0680499999999999e-06
0.109983, 1.07342e-06
0.119977, 1.08199e-06
0.129971, 1.09024e-06
0.139964, 1.0984899999999999e-06
0.149958, 1.10717e-06
0.159952, 1.11511e-06
0.169946, 1.12374e-06
0.17994, 1.1326099999999998e-06
0.189934, 1.1427400000000001e-06
0.199928, 1.1524199999999999e-06
0.209922, 1.16255e-06
0.219916, 1.17255e-06
0.22991, 1.1841699999999998e-06
0.239904, 1.19555e-06
0.249897, 1.2066699999999998e-06
0.259891, 1.21911e-06
0.269885, 1.22899e-06
0.279879, 1.2431099999999999e-06
0.289873, 1.2558e-06
0.299867, 1.2680499999999999e-06
0.309861, 1.27936e-06
0.319855, 1.29349e-06
0.329849, 1.3052999999999998e-06
0.339843, 1.31861e-06
0.349837, 1.33174e-06
0.35983, 1.34574e-06
0.369824, 1.3557999999999998e-06
0.379818, 1.36943e-06
0.389812, 1.38093e-06
0.399806, 1.3933699999999999e-06
0.4098, 1.4061199999999999e-06
0.419794, 1.4183699999999999e-06
0.429788, 1.43012e-06
0.439782, 1.4418e-06
0.449776, 1.45468e-06
0.45977, 1.46674e-06
0.469764, 1.47993e-06
0.479757, 1.4912399999999998e-06
0.489751, 1.5036199999999998e-06
0.499745, 1.5166799999999999e-06
0.509739, 1.5296199999999998e-06
0.519733, 1.5423e-06
0.529727, 1.55562e-06
0.539721, 1.5697399999999998e-06
0.549715, 1.5836199999999999e-06
0.559709, 1.5978399999999998e-06
0.569703, 1.6122099999999998e-06
0.579696, 1.62534e-06
0.58969, 1.6378399999999998e-06
0.599684, 1.65034e-06
0.609678, 1.6622099999999998e-06
0.619672, 1.67284e-06
0.629666, 1.68534e-06
0.63966, 1.69721e-06
0.649654, 1.70846e-06
0.659648, 1.71846e-06
0.669642, 1.73096e-06
0.679635, 1.74284e-06
0.689629, 1.7515899999999998e-06
0.699623, 1.7647099999999999e-06
0.709617, 1.77596e-06
0.719611, 1.7872099999999999e-06
0.729605, 1.79909e-06
0.739599, 1.80909e-06
0.749593, 1.81909e-06
0.759587, 1.83034e-06
0.769581, 1.84284e-06
0.779574, 1.8572200000000001e-06
0.789568, 1.87472e-06
0.799562, 1.8972199999999997e-06
0.809556, 1.9272199999999997e-06
0.81955, 1.97222e-06
0.829544, 2.0272199999999995e-06
0.839538, 2.10284e-06
0.849532, 2.1928499999999997e-06
0.859526, 2.2916e-06
0.86952, 2.3915999999999997e-06
0.879513, 2.4790999999999997e-06
0.889507, 2.5466e-06
0.899501, 2.5928499999999997e-06
0.909495, 2.61785e-06
0.919489, 2.6265999999999996e-06
0.929483, 2.61973e-06
0.939477, 2.6034799999999996e-06
0.949471, 2.58223e-06
0.959465, 2.5553499999999996e-06
0.969459, 2.5297299999999997e-06
0.979453, 2.4991e-06
0.989446, 2.4703499999999996e-06
0.99944, 2.4397299999999997e-06
1.00943, 2.41347e-06
1.01943, 2.3859699999999997e-06
1.02942, 2.3616e-06
1.03942, 2.33535e-06
1.04941, 2.3122199999999998e-06
1.0594, 2.29035e-06
1.0694, 2.2697199999999998e-06
1.07939, 2.25035e-06
1.08939, 2.2341e-06
1.09938, 2.2166e-06
1.10937, 2.19972e-06
1.11937, 2.18597e-06
1.12936, 2.17347e-06
1.13935, 2.15972e-06
1.14935, 2.15159e-06
1.15934, 2.1390899999999997e-06
1.16934, 2.12972e-06
1.17933, 2.12034e-06
1.18932, 2.11035e-06
1.19932, 2.10347e-06
1.20931, 2.0940899999999997e-06
1.21931, 2.08784e-06
1.2293, 2.07784e-06
1.23929, 2.07222e-06
1.24929, 2.06659e-06
1.25928, 2.0615899999999996e-06
1.26928, 2.05597e-06
1.27927, 2.04972e-06
1.28926, 2.04659e-06
1.29926, 2.04284e-06
1.30925, 2.03972e-06
1.31925, 2.04034e-06
1.32924, 2.03909e-06
1.33923, 2.03972e-06
1.34923, 2.03909e-06
1.35922, 2.04034e-06
1.36921, 2.04472e-06
1.37921, 2.04784e-06
1.3892, 2.0565899999999997e-06
1.3992, 2.06284e-06
1.40919, 2.0697199999999996e-06
1.41918, 2.0784699999999997e-06
1.42918, 2.08972e-06
1.43917, 2.1047199999999996e-06
1.44917, 2.11972e-06
1.45916, 2.13472e-06
1.46915, 2.1541e-06
1.47915, 2.17597e-06
1.48914, 2.1978399999999998e-06
1.49914, 2.2234699999999996e-06
1.50913, 2.25222e-06
1.51912, 2.2816e-06
1.52912, 2.31347e-06
1.53911, 2.3478500000000003e-06
1.5491, 2.3859699999999997e-06
1.5591, 2.4265999999999998e-06
1.56909, 2.4666e-06
1.57909, 2.5116e-06
1.58908, 2.55973e-06
1.59907, 2.60848e-06
1.60907, 2.6603500000000003e-06
1.61906, 2.7141e-06
1.62906, 2.77035e-06
1.63905, 2.8322299999999997e-06
1.64904, 2.89536e-06
1.65904, 2.95411e-06
1.66903, 3.02161e-06
1.67903, 3.09098e-06
1.68902, 3.1628599999999996e-06
1.69901, 3.23911e-06
1.70901, 3.3191099999999995e-06
1.719, 3.4022399999999996e-06
1.729, 3.49099e-06
1.73899, 3.58724e-06
1.74898, 3.6784899999999997e-06
1.75898, 3.7872499999999996e-06
1.76897, 3.89287e-06
1.77896, 4.0116199999999995e-06
1.78896, 4.1347500000000005e-06
1.79895, 4.26413e-06
1.80895, 4.40163e-06
1.81894, 4.547259999999999e-06
1.82893, 4.70976e-06
1.83893, 4.87289e-06
1.84892, 5.05039e-06
1.85892, 5.23914e-06
1.86891, 5.43602e-06
1.8789, 5.65227e-06
1.8889, 5.87415e-06
1.89889, 6.1197800000000006e-06
1.90889, 6.36353e-06
1.91888, 6.62916e-06
1.92887, 6.907289999999999e-06
1.93887, 7.20042e-06
1.94886, 7.499799999999999e-06
1.95885, 7.82668e-06
1.96885, 8.150439999999998e-06
1.97884, 8.49982e-06
1.98884, 8.855449999999998e-06
1.99883, 9.22483e-06
2.00882, 9.59983e-06
1.99883, 7.12855e-06
1.98884, 5.612899999999999e-06
1.97884, 4.58226e-06
1.96885, 3.846e-06
1.95885, 3.2934899999999996e-06
1.94886, 2.88411e-06
1.93887, 2.5503499999999996e-06
1.92887, 2.29535e-06
1.91888, 2.08472e-06
1.90889, 1.91222e-06
1.89889, 1.76221e-06
1.8889, 1.64284e-06
1.8789, 1.5365899999999998e-06
1.86891, 1.44221e-06
1.85892, 1.36221e-06
1.84892, 1.28908e-06
1.83893, 1.22721e-06
1.82893, 1.17095e-06
1.81894, 1.11283e-06
1.80895, 1.06658e-06
1.79895, 1.01658e-06
1.78896, 9.74703e-07
1.77896, 9.36577e-07
1.76897, 8.97827e-07
1.75898, 8.60951e-07
1.74898, 8.2845e-07
1.73899, 7.9845e-07
1.729, 7.678249999999999e-07
1.719, 7.36573e-07
1.70901, 7.09698e-07
1.69901, 6.84698e-07
1.68902, 6.57823e-07
1.67903, 6.32823e-07
1.66903, 6.10321e-07
1.65904, 5.85322e-07
1.64904, 5.62196e-07
1.63905, 5.38445e-07
1.62906, 5.17821e-07
1.61906, 4.9407e-07
1.60907, 4.75945e-07
1.59907, 4.5594499999999997e-07
1.58908, 4.3782e-07
1.57909, 4.18444e-07
1.56909, 4.00537e-07
1.5591, 3.82475e-07
1.5491, 3.64537e-07
1.53911, 3.4953699999999996e-07
1.52912, 3.33161e-07
1.51912, 3.15849e-07
1.50913, 2.9984799999999997e-07
1.49914, 2.8441e-07
1.48914, 2.67098e-07
1.47915, 2.5315999999999997e-07
1.46915, 2.3691e-07
1.45916, 2.22597e-07
1.44917, 2.0659699999999998e-07
1.43917, 1.9240899999999999e-07
1.42918, 1.78097e-07
1.41918, 1.62721e-07
1.40919, 1.48846e-07
1.3992, 1.35971e-07
1.3892, 1.20283e-07
1.37921, 1.07158e-07
1.36921, 9.33452e-08
1.35922, 7.946989999999999e-08
1.34923, 6.62823e-08
1.33923, 5.28445e-08
1.32924, 4.0156799999999996e-08
1.31925, 2.79691e-08
1.30925, 1.44689e-08
1.29926, 1.09386e-09
1.28926, -1.1531400000000001e-08
1.27927, -2.3906699999999997e-08
1.26928, -3.80725e-08
1.25928, -4.9903899999999996e-08
1.24929, -6.24603e-08
1.23929, -7.50918e-08
1.2293, -8.7417e-08
1.21931, -9.859209999999999e-08
1.20931, -1.1318599999999999e-07
1.19932, -1.25118e-07
1.18932, -1.3829899999999999e-07
1.17933, -1.50424e-07
1.16934, -1.62062e-07
1.15934, -1.7583099999999998e-07
1.14935, -1.8678099999999998e-07
1.13935, -1.9903399999999998e-07
1.12936, -2.11285e-07
1.11937, -2.24347e-07
1.10937, -2.36847e-07
1.09938, -2.4966e-07
1.08939, -2.6222299999999995e-07
1.07939, -2.7372299999999997e-07
1.0694, -2.87973e-07
1.0594, -3.0278599999999997e-07
1.04941, -3.18411e-07
1.03942, -3.3453599999999997e-07
1.02942, -3.5316199999999997e-07
1.01943, -3.72474e-07
1.00943, -3.94287e-07
0.99944, -4.17038e-07
0.989446, -4.40413e-07
0.979453, -4.6460099999999994e-07
0.969459, -4.87976e-07
0.959465, -5.12914e-07
0.949471, -5.357269999999999e-07
0.939477, -5.56852e-07
0.929483, -5.7779e-07
0.919489, -5.954779999999999e-07
0.909495, -6.144159999999999e-07
0.899501, -6.29541e-07
0.889507, -6.44166e-07
0.879513, -6.55541e-07
0.86952, -6.662289999999999e-07
0.859526, -6.74104e-07
0.849532, -6.84667e-07
0.839538, -6.891669999999999e-07
0.829544, -6.95104e-07
0.81955, -7.0048e-07
0.809556, -7.053549999999999e-07
0.799562, -7.061669999999999e-07
0.789568, -7.09355e-07
0.779574, -7.110419999999999e-07
0.769581, -7.139799999999999e-07
0.759587, -7.14105e-07
0.749593, -7.15605e-07
0.739599, -7.13542e-07
0.729605, -7.153549999999999e-07
0.719611, -7.1448e-07
0.709617, -7.1348e-07
0.699623, -7.13605e-07
0.689629, -7.113549999999999e-07
0.679635, -7.1148e-07
0.669642, -7.097299999999999e-07
0.659648, -7.107919999999999e-07
0.649654, -7.0898e-07
0.63966, -7.089169999999999e-07
0.629666, -7.082920000000001e-07
0.619672, -7.090419999999999e-07
0.609678, -7.082920000000001e-07
0.599684, -7.0873e-07
0.58969, -7.09417e-07
0.579696, -7.099800000000001e-07
0.569703, -7.101669999999999e-07
0.559709, -7.12792e-07
0.549715, -7.139799999999999e-07
0.539721, -7.143549999999999e-07
0.529727, -7.15542e-07
0.519733, -7.18292e-07
0.509739, -7.2023e-07
0.499745, -7.21855e-07
0.489751, -7.23605e-07
0.479757, -7.260419999999999e-07
0.469764, -7.277919999999999e-07
0.45977, -7.30355e-07
0.449776, -7.3273e-07
0.439782, -7.350419999999999e-07
0.429788, -7.395429999999999e-07
0.419794, -7.41605e-07
0.4098, -7.456049999999999e-07
0.399806, -7.4798e-07
0.389812, -7.51418e-07
0.379818, -7.561679999999999e-07
0.369824, -7.58605e-07
0.35983, -7.62668e-07
0.349837, -7.67543e-07
0.339843, -7.70918e-07
0.329849, -7.755429999999999e-07
0.319855, -7.804179999999999e-07
0.309861, -7.85606e-07
0.299867, -7.903559999999999e-07
0.289873, -7.95981e-07
0.279879, -8.01543e-07
0.269885, -8.06356e-07
0.259891, -8.11044e-07
0.249897, -8.164189999999999e-07
0.239904, -8.213559999999999e-07
0.22991, -8.27231e-07
0.219916, -8.325439999999999e-07
0.209922, -8.37482e-07
0.199928, -8.42794e-07
0.189934, -8.47794e-07
0.17994, -8.535439999999999e-07
0.169946, -8.60232e-07
0.159952, -8.654819999999999e-07
0.149958, -8.7192e-07
0.139964, -8.770449999999999e-07
0.129971, -8.8317e-07
0.119977, -8.89607e-07
0.109983, -8.959829999999999e-07
0.099989, -9.0267e-07
0.089995, -9.07983e-07
0.080001, -9.13295e-07
0.0700074, -9.1967e-07
0.0600134, -9.258579999999999e-07
0.0500195, -9.307959999999999e-07
0.0400255, -9.364829999999999e-07
0.0300315, -9.42296e-07
0.0200379, -9.47296e-07
0.0100439, -9.53171e-07
##END=$$ End of the data block
