##TITLE=Spectrum
##JCAMP-DX=5.00 $$ chemotion-converter-app (1.6.2)
##DATA TYPE=CYCLIC VOLTAMMETRY
##DATA CLASS=XYPOINTS
##ORIGIN=
##OWNER=
##CALCULATION_APPLIED_Y=True
##XUNITS=Voltage in V
##YUNITS=Current in A
##CYCLES=1
##TIME=15:58:21
##DATE=2019-10-25
##SCAN_RATE=2.000E-001
##SOFTWARE=PSTrace
##SOFTWARE_VERSION=5.4.1528.18404
##STEP_SIZE=1.000E-002
##VOLTAGE_START=0.000E+000
##VOLTAGE_LIMIT_ONE=-2.700E+000
##VOLTAGE_LIMIT_TWO=2.000E+000
##VOLTAGE_LIMIT_END=5.000E-001
##COMMENTS=p-Br-Ph-CO2Me_MeCN.pssession
##FIRSTX=4.99413E-05
##LASTX=0.0100439
##MINX=-2.7083
##MAXX=2.00882
##MINY=-1.09655e-05
##MAXY=7.2597999999999995e-06
##NPOINTS=944
##FIRSTY=-1.58096e-06
##XUNITS=Voltage in V
##YUNITS=Current in A
##XYPOINTS=(XY..XY)
4.99413E-05, -1.58096e-06
-0.00994404, -1.0840799999999998e-06
-0.019938, -9.047019999999999e-07
-0.0299316, -8.153249999999999e-07
-0.0399256, -7.665739999999999e-07
-0.0499196, -7.359489999999999e-07
-0.0599135, -7.17824e-07
-0.0699075, -7.05949e-07
-0.0799013, -6.99073e-07
-0.0898951, -6.959490000000001e-07
-0.0998891, -6.94698e-07
-0.109883, -6.959490000000001e-07
-0.119877, -6.959490000000001e-07
-0.129871, -6.99073e-07
-0.139865, -7.02199e-07
-0.149859, -7.05949e-07
-0.159853, -7.11573e-07
-0.169846, -7.15324e-07
-0.17984, -7.209489999999999e-07
-0.189834, -7.259489999999999e-07
-0.199828, -7.32199e-07
-0.209822, -7.37824e-07
-0.219816, -7.42824e-07
-0.22981, -7.49074e-07
-0.239804, -7.559489999999999e-07
-0.249798, -7.61575e-07
-0.259792, -7.671999999999999e-07
-0.269785, -7.74075e-07
-0.279779, -7.79074e-07
-0.289773, -7.846999999999999e-07
-0.299767, -7.91575e-07
-0.309761, -7.97825e-07
-0.319755, -8.022e-07
-0.329749, -8.097e-07
-0.339743, -8.146999999999999e-07
-0.349737, -8.20326e-07
-0.359731, -8.265759999999999e-07
-0.369724, -8.297e-07
-0.379718, -8.365749999999999e-07
-0.389712, -8.41576e-07
-0.399706, -8.478259999999999e-07
-0.4097, -8.528259999999999e-07
-0.419694, -8.584509999999999e-07
-0.429688, -8.634509999999999e-07
-0.439682, -8.6845e-07
-0.449676, -8.740759999999999e-07
-0.45967, -8.797009999999999e-07
-0.469663, -8.859519999999999e-07
-0.479657, -8.92202e-07
-0.489651, -8.97201e-07
-0.499645, -9.022009999999999e-07
-0.509639, -9.10326e-07
-0.519633, -9.172019999999999e-07
-0.529627, -9.253259999999999e-07
-0.539621, -9.334519999999999e-07
-0.549615, -9.428269999999999e-07
-0.559609, -9.54702e-07
-0.569602, -9.64702e-07
-0.579596, -9.75952e-07
-0.58959, -9.884519999999999e-07
-0.599584, -1.0046999999999999e-06
-0.609578, -1.0197e-06
-0.619572, -1.03533e-06
-0.629566, -1.05095e-06
-0.63956, -1.06595e-06
-0.649554, -1.08283e-06
-0.659548, -1.09658e-06
-0.669541, -1.11033e-06
-0.679535, -1.1209499999999998e-06
-0.689529, -1.13158e-06
-0.699523, -1.13971e-06
-0.709517, -1.1447e-06
-0.719511, -1.1472e-06
-0.729505, -1.1472e-06
-0.739499, -1.1465799999999998e-06
-0.749493, -1.1434599999999999e-06
-0.759487, -1.14033e-06
-0.769481, -1.13721e-06
-0.779474, -1.13158e-06
-0.789468, -1.12846e-06
-0.799462, -1.1222099999999999e-06
-0.809456, -1.1171999999999999e-06
-0.81945, -1.11158e-06
-0.829444, -1.1065799999999998e-06
-0.839438, -1.1009599999999999e-06
-0.849432, -1.09658e-06
-0.859426, -1.0909500000000001e-06
-0.86942, -1.08845e-06
-0.879413, -1.0840799999999998e-06
-0.889407, -1.08033e-06
-0.899401, -1.0771999999999998e-06
-0.909395, -1.0753299999999999e-06
-0.919389, -1.0734499999999999e-06
-0.929383, -1.07095e-06
-0.939377, -1.06783e-06
-0.949371, -1.06783e-06
-0.959365, -1.06658e-06
-0.969359, -1.06658e-06
-0.979353, -1.06658e-06
-0.989347, -1.0647e-06
-0.99934, -1.0647e-06
-1.00933, -1.0647e-06
-1.01933, -1.06658e-06
-1.02932, -1.0672e-06
-1.03932, -1.06845e-06
-1.04931, -1.0697000000000001e-06
-1.0593, -1.07095e-06
-1.0693, -1.07283e-06
-1.07929, -1.0753299999999999e-06
-1.08929, -1.0771999999999998e-06
-1.09928, -1.0784499999999998e-06
-1.10927, -1.08158e-06
-1.11927, -1.0822e-06
-1.12926, -1.0853299999999998e-06
-1.13926, -1.0872e-06
-1.14925, -1.0897e-06
-1.15924, -1.0934499999999999e-06
-1.16924, -1.09658e-06
-1.17923, -1.09908e-06
-1.18922, -1.1022e-06
-1.19922, -1.1040799999999998e-06
-1.20921, -1.10721e-06
-1.21921, -1.11033e-06
-1.2292, -1.11408e-06
-1.23919, -1.11783e-06
-1.24919, -1.1209499999999998e-06
-1.25918, -1.1240799999999998e-06
-1.26918, -1.1265799999999998e-06
-1.27917, -1.1297e-06
-1.28916, -1.13283e-06
-1.29916, -1.13658e-06
-1.30915, -1.14033e-06
-1.31915, -1.1428299999999999e-06
-1.32914, -1.1465799999999998e-06
-1.33913, -1.14908e-06
-1.34913, -1.15283e-06
-1.35912, -1.15658e-06
-1.36911, -1.1590800000000001e-06
-1.37911, -1.16346e-06
-1.3891, -1.1665799999999998e-06
-1.3991, -1.17033e-06
-1.40909, -1.17408e-06
-1.41908, -1.17783e-06
-1.42908, -1.18158e-06
-1.43907, -1.1853299999999999e-06
-1.44907, -1.18971e-06
-1.45906, -1.19408e-06
-1.46905, -1.19846e-06
-1.47905, -1.20408e-06
-1.48904, -1.2090799999999999e-06
-1.49904, -1.2147099999999998e-06
-1.50903, -1.21846e-06
-1.51902, -1.22471e-06
-1.52902, -1.2297100000000001e-06
-1.53901, -1.2347099999999999e-06
-1.549, -1.24096e-06
-1.559, -1.24658e-06
-1.56899, -1.25221e-06
-1.57899, -1.2572099999999999e-06
-1.58898, -1.26471e-06
-1.59897, -1.27096e-06
-1.60897, -1.2772099999999999e-06
-1.61896, -1.28408e-06
-1.62896, -1.29221e-06
-1.63895, -1.2990799999999999e-06
-1.64894, -1.30596e-06
-1.65894, -1.31346e-06
-1.66893, -1.3209599999999999e-06
-1.67893, -1.3297099999999998e-06
-1.68892, -1.3390799999999999e-06
-1.69891, -1.34658e-06
-1.70891, -1.35721e-06
-1.7189, -1.3653299999999999e-06
-1.7289, -1.37596e-06
-1.73889, -1.3859600000000001e-06
-1.74888, -1.3965799999999998e-06
-1.75888, -1.4065799999999999e-06
-1.76887, -1.4178299999999998e-06
-1.77886, -1.4290799999999999e-06
-1.78886, -1.44221e-06
-1.79885, -1.4534599999999999e-06
-1.80885, -1.4659599999999998e-06
-1.81884, -1.4790899999999999e-06
-1.82883, -1.49159e-06
-1.83883, -1.5047099999999998e-06
-1.84882, -1.5197099999999999e-06
-1.85882, -1.5340899999999998e-06
-1.86881, -1.5497099999999998e-06
-1.8788, -1.56534e-06
-1.8888, -1.58159e-06
-1.89879, -1.5965899999999998e-06
-1.90879, -1.6122099999999998e-06
-1.91878, -1.62784e-06
-1.92877, -1.64534e-06
-1.93877, -1.66096e-06
-1.94876, -1.67659e-06
-1.95876, -1.69346e-06
-1.96875, -1.70909e-06
-1.97874, -1.7240899999999999e-06
-1.98874, -1.73784e-06
-1.99873, -1.75471e-06
-2.00872, -1.76847e-06
-2.01872, -1.78409e-06
-2.02871, -1.7997199999999998e-06
-2.03871, -1.81597e-06
-2.0487, -1.83159e-06
-2.05869, -1.8478399999999997e-06
-2.06869, -1.86534e-06
-2.07868, -1.8822199999999999e-06
-2.08868, -1.90097e-06
-2.09867, -1.91847e-06
-2.10866, -1.9378399999999997e-06
-2.11866, -1.95597e-06
-2.12865, -1.97659e-06
-2.13865, -1.99847e-06
-2.14864, -2.0184700000000003e-06
-2.15863, -2.04034e-06
-2.16863, -2.06284e-06
-2.17862, -2.08597e-06
-2.18861, -2.1097199999999996e-06
-2.19861, -2.13472e-06
-2.2086, -2.1584699999999998e-06
-2.2186, -2.1847199999999997e-06
-2.22859, -2.21222e-06
-2.23858, -2.2391e-06
-2.24858, -2.2666e-06
-2.25857, -2.29472e-06
-2.26857, -2.3241e-06
-2.27856, -2.35472e-06
-2.28855, -2.3859699999999997e-06
-2.29855, -2.4172199999999996e-06
-2.30854, -2.4516e-06
-2.31854, -2.4847299999999997e-06
-2.32853, -2.52098e-06
-2.33852, -2.5559799999999996e-06
-2.34852, -2.5953499999999996e-06
-2.35851, -2.6341e-06
-2.36851, -2.6741e-06
-2.3785, -2.7159799999999998e-06
-2.38849, -2.7597299999999996e-06
-2.39849, -2.8053599999999996e-06
-2.40848, -2.85286e-06
-2.41847, -2.90223e-06
-2.42847, -2.95411e-06
-2.43846, -3.0072299999999998e-06
-2.44846, -3.06224e-06
-2.45845, -3.1203599999999995e-06
-2.46844, -3.1797399999999996e-06
-2.47844, -3.2422399999999995e-06
-2.48843, -3.30849e-06
-2.49843, -3.37536e-06
-2.50842, -3.4478699999999997e-06
-2.51841, -3.5241199999999996e-06
-2.52841, -3.6041199999999996e-06
-2.5384, -3.6859899999999997e-06
-2.5484, -3.7747499999999997e-06
-2.55839, -3.867249999999999e-06
-2.56838, -3.96662e-06
-2.57838, -4.07225e-06
-2.58837, -4.18975e-06
-2.59836, -4.317879999999999e-06
-2.60836, -4.462259999999999e-06
-2.61835, -4.62788e-06
-2.62835, -4.82539e-06
-2.63834, -5.06539e-06
-2.64833, -5.36602e-06
-2.65833, -5.75478e-06
-2.66832, -6.26916e-06
-2.67832, -6.95917e-06
-2.68831, -7.90106e-06
-2.6983, -9.1917e-06
-2.7083, -1.09655e-05
-2.6983, -8.372319999999999e-06
-2.68831, -6.563539999999999e-06
-2.67832, -5.26477e-06
-2.66832, -4.31913e-06
-2.65833, -3.6178699999999997e-06
-2.64833, -3.0947399999999996e-06
-2.63834, -2.6947299999999998e-06
-2.62835, -2.38722e-06
-2.61835, -2.14347e-06
-2.60836, -1.9484699999999997e-06
-2.59836, -1.79096e-06
-2.58837, -1.6603399999999998e-06
-2.57838, -1.5497099999999998e-06
-2.56838, -1.4540900000000001e-06
-2.55839, -1.3722099999999998e-06
-2.5484, -1.2990799999999999e-06
-2.5384, -1.2372099999999998e-06
-2.52841, -1.17971e-06
-2.51841, -1.12846e-06
-2.50842, -1.08095e-06
-2.49843, -1.0371999999999998e-06
-2.48843, -9.97828e-07
-2.47844, -9.63452e-07
-2.46844, -9.28452e-07
-2.45845, -8.97826e-07
-2.44846, -8.690759999999999e-07
-2.43846, -8.428250000000001e-07
-2.42847, -8.16575e-07
-2.41847, -7.9345e-07
-2.40848, -7.722e-07
-2.39849, -7.50949e-07
-2.38849, -7.315739999999999e-07
-2.3785, -7.12198e-07
-2.36851, -6.959490000000001e-07
-2.35851, -6.778229999999999e-07
-2.34852, -6.61572e-07
-2.33852, -6.49073e-07
-2.32853, -6.32823e-07
-2.31854, -6.184469999999999e-07
-2.30854, -6.05947e-07
-2.29855, -5.928219999999999e-07
-2.28855, -5.809459999999999e-07
-2.27856, -5.69072e-07
-2.26857, -5.57196e-07
-2.25857, -5.47822e-07
-2.24858, -5.36571e-07
-2.23858, -5.25945e-07
-2.22859, -5.15946e-07
-2.2186, -5.0532e-07
-2.2086, -4.97196e-07
-2.19861, -4.878199999999999e-07
-2.18861, -4.79071e-07
-2.17862, -4.7031899999999996e-07
-2.16863, -4.62196e-07
-2.15863, -4.5407099999999996e-07
-2.14864, -4.48038e-07
-2.13865, -4.4022499999999993e-07
-2.12865, -4.34225e-07
-2.11866, -4.26288e-07
-2.10866, -4.1891299999999996e-07
-2.09867, -4.12725e-07
-2.08868, -4.06412e-07
-2.07868, -4.00225e-07
-2.06869, -3.93787e-07
-2.05869, -3.87475e-07
-2.0487, -3.80162e-07
-2.03871, -3.74974e-07
-2.02871, -3.69037e-07
-2.01872, -3.62974e-07
-2.00872, -3.57474e-07
-1.99873, -3.5022399999999997e-07
-1.98874, -3.44849e-07
-1.97874, -3.38224e-07
-1.96875, -3.3216099999999995e-07
-1.95876, -3.26911e-07
-1.94876, -3.2016099999999995e-07
-1.93877, -3.14661e-07
-1.92877, -3.08974e-07
-1.91878, -3.04348e-07
-1.90879, -2.9716099999999997e-07
-1.89879, -2.9134799999999997e-07
-1.8888, -2.86098e-07
-1.8788, -2.79598e-07
-1.86881, -2.73973e-07
-1.85882, -2.6928499999999997e-07
-1.84882, -2.63785e-07
-1.83883, -2.58598e-07
-1.82883, -2.52785e-07
-1.81884, -2.47598e-07
-1.80885, -2.41535e-07
-1.79885, -2.37285e-07
-1.78886, -2.3066e-07
-1.77886, -2.2634699999999998e-07
-1.76887, -2.20785e-07
-1.75888, -2.1615999999999997e-07
-1.74888, -2.1041000000000002e-07
-1.73889, -2.04659e-07
-1.7289, -2.00222e-07
-1.7189, -1.9534699999999998e-07
-1.70891, -1.88222e-07
-1.69891, -1.83659e-07
-1.68892, -1.77846e-07
-1.67893, -1.7347099999999998e-07
-1.66893, -1.68096e-07
-1.65894, -1.6209599999999997e-07
-1.64894, -1.56284e-07
-1.63895, -1.5209600000000001e-07
-1.62896, -1.44908e-07
-1.61896, -1.40908e-07
-1.60897, -1.3390799999999998e-07
-1.59897, -1.28533e-07
-1.58898, -1.23533e-07
-1.57899, -1.17096e-07
-1.56899, -1.11596e-07
-1.559, -1.05408e-07
-1.549, -9.92827e-08
-1.53901, -9.37202e-08
-1.52902, -8.72827e-08
-1.51902, -8.147e-08
-1.50903, -7.490739999999999e-08
-1.49904, -6.846979999999999e-08
-1.48904, -6.29697e-08
-1.47905, -5.5532099999999996e-08
-1.46905, -5.0657e-08
-1.45906, -4.4844399999999996e-08
-1.44907, -3.853179999999999e-08
-1.43907, -3.07193e-08
-1.42908, -2.52192e-08
-1.41908, -1.8781699999999996e-08
-1.40909, -1.27346e-08
-1.3991, -4.990709999999999e-09
-1.3891, 4.2188199999999996e-10
-1.37911, 6.64072e-09
-1.36911, 1.25783e-08
-1.35912, 1.9472199999999998e-08
-1.34913, 2.6516e-08
-1.33913, 3.23224e-08
-1.32914, 3.73162e-08
-1.31915, 4.3978799999999995e-08
-1.30915, 4.90976e-08
-1.29916, 5.63665e-08
-1.28916, 6.12353e-08
-1.27917, 6.78979e-08
-1.26918, 7.312299999999999e-08
-1.25918, 7.97356e-08
-1.24919, 8.59294e-08
-1.23919, 9.067949999999999e-08
-1.2292, 9.63233e-08
-1.21921, 1.0229199999999999e-07
-1.20921, 1.07224e-07
-1.19922, 1.12467e-07
-1.18922, 1.17536e-07
-1.17923, 1.2309299999999998e-07
-1.16924, 1.2845500000000002e-07
-1.15924, 1.3313e-07
-1.14925, 1.39074e-07
-1.13926, 1.4358699999999997e-07
-1.12926, 1.4866199999999998e-07
-1.11927, 1.53455e-07
-1.10927, 1.57471e-07
-1.09928, 1.62221e-07
-1.08929, 1.67659e-07
-1.07929, 1.7147100000000001e-07
-1.0693, 1.76409e-07
-1.0593, 1.81097e-07
-1.04931, 1.85784e-07
-1.03932, 1.88472e-07
-1.02932, 1.9440899999999998e-07
-1.01933, 1.9928399999999997e-07
-1.00933, 2.03222e-07
-0.99934, 2.06909e-07
-0.989347, 2.10847e-07
-0.979353, 2.1615999999999997e-07
-0.969359, 2.1940999999999998e-07
-0.959365, 2.2409699999999997e-07
-0.949371, 2.2922199999999999e-07
-0.939377, 2.3391e-07
-0.929383, 2.3834699999999998e-07
-0.919389, 2.4297199999999996e-07
-0.909395, 2.48472e-07
-0.899401, 2.53848e-07
-0.889407, 2.59723e-07
-0.879413, 2.66535e-07
-0.86942, 2.7441e-07
-0.859426, 2.83411e-07
-0.849432, 2.93098e-07
-0.839438, 3.05598e-07
-0.829444, 3.22036e-07
-0.81945, 3.36349e-07
-0.809456, 3.5566199999999995e-07
-0.799462, 3.7485e-07
-0.789468, 3.95975e-07
-0.779474, 4.1616199999999994e-07
-0.769481, 4.33975e-07
-0.759487, 4.50288e-07
-0.749493, 4.61851e-07
-0.739499, 4.72476e-07
-0.729505, 4.79913e-07
-0.719511, 4.86101e-07
-0.709517, 4.91476e-07
-0.699523, 4.94664e-07
-0.689529, 4.96726e-07
-0.679535, 5.00039e-07
-0.669541, 5.03101e-07
-0.659548, 5.05289e-07
-0.649554, 5.05976e-07
-0.63956, 5.079769999999999e-07
-0.629566, 5.09851e-07
-0.619572, 5.114140000000001e-07
-0.609578, 5.14039e-07
-0.599584, 5.15477e-07
-0.58959, 5.16352e-07
-0.579596, 5.17977e-07
-0.569602, 5.18852e-07
-0.559609, 5.22602e-07
-0.549615, 5.243520000000001e-07
-0.539621, 5.275389999999999e-07
-0.529627, 5.29477e-07
-0.519633, 5.32289e-07
-0.509639, 5.347269999999999e-07
-0.499645, 5.368519999999999e-07
-0.489651, 5.391649999999999e-07
-0.479657, 5.427889999999999e-07
-0.469663, 5.45227e-07
-0.45967, 5.49227e-07
-0.449676, 5.5254e-07
-0.439682, 5.5704e-07
-0.429688, 5.57477e-07
-0.419694, 5.6179e-07
-0.4097, 5.66477e-07
-0.399706, 5.68852e-07
-0.389712, 5.7304e-07
-0.379718, 5.76728e-07
-0.369724, 5.80603e-07
-0.359731, 5.83665e-07
-0.349737, 5.87728e-07
-0.339743, 5.90728e-07
-0.329749, 5.9529e-07
-0.319755, 5.97415e-07
-0.309761, 6.02916e-07
-0.299767, 6.0704e-07
-0.289773, 6.09666e-07
-0.279779, 6.13353e-07
-0.269785, 6.19541e-07
-0.259792, 6.21791e-07
-0.249798, 6.261659999999999e-07
-0.239804, 6.29541e-07
-0.22981, 6.34041e-07
-0.219816, 6.39166e-07
-0.209822, 6.414159999999999e-07
-0.199828, 6.460409999999999e-07
-0.189834, 6.507289999999999e-07
-0.17984, 6.556039999999999e-07
-0.169846, 6.59354e-07
-0.159853, 6.64604e-07
-0.149859, 6.70166e-07
-0.139865, 6.73417e-07
-0.129871, 6.78292e-07
-0.119877, 6.82042e-07
-0.109883, 6.88667e-07
-0.0998891, 6.93979e-07
-0.0898951, 6.98292e-07
-0.0799013, 7.024169999999999e-07
-0.0699075, 7.074169999999999e-07
-0.0599135, 7.13667e-07
-0.0499196, 7.186669999999999e-07
-0.0399256, 7.2448e-07
-0.0299316, 7.271049999999999e-07
-0.019938, 7.3348e-07
-0.00994404, 7.37355e-07
4.99413E-05, 7.419179999999999e-07
0.0100439, 7.471049999999999e-07
0.0200379, 7.506679999999999e-07
0.0300315, 7.5673e-07
0.0400255, 7.591679999999999e-07
0.0500195, 7.64293e-07
0.0600134, 7.68543e-07
0.0700074, 7.70918e-07
0.080001, 7.776679999999999e-07
0.089995, 7.80043e-07
0.099989, 7.84668e-07
0.109983, 7.877929999999999e-07
0.119977, 7.92106e-07
0.129971, 7.95543e-07
0.139964, 7.98543e-07
0.149958, 8.017309999999999e-07
0.159952, 8.05606e-07
0.169946, 8.08669e-07
0.17994, 8.119189999999999e-07
0.189934, 8.14481e-07
0.199928, 8.17856e-07
0.209922, 8.21794e-07
0.219916, 8.23294e-07
0.22991, 8.28169e-07
0.239904, 8.30169e-07
0.249897, 8.31231e-07
0.259891, 8.34357e-07
0.269885, 8.36794e-07
0.279879, 8.39732e-07
0.289873, 8.40919e-07
0.299867, 8.44732e-07
0.309861, 8.449189999999999e-07
0.319855, 8.48357e-07
0.329849, 8.51544e-07
0.339843, 8.531069999999999e-07
0.349837, 8.54919e-07
0.35983, 8.58544e-07
0.369824, 8.61357e-07
0.379818, 8.65107e-07
0.389812, 8.69545e-07
0.399806, 8.734199999999999e-07
0.4098, 8.77795e-07
0.419794, 8.837319999999999e-07
0.429788, 8.90607e-07
0.439782, 8.962949999999999e-07
0.449776, 9.04108e-07
0.45977, 9.13483e-07
0.469764, 9.234199999999999e-07
0.479757, 9.32045e-07
0.489751, 9.42733e-07
0.499745, 9.53921e-07
0.509739, 9.64108e-07
0.519733, 9.76171e-07
0.529727, 9.86171e-07
0.539721, 9.96109e-07
0.549715, 1.00655e-06
0.559709, 1.0135499999999998e-06
0.569703, 1.02461e-06
0.579696, 1.03098e-06
0.58969, 1.03848e-06
0.599684, 1.04386e-06
0.609678, 1.04817e-06
0.619672, 1.0533e-06
0.629666, 1.05705e-06
0.63966, 1.05855e-06
0.649654, 1.06355e-06
0.659648, 1.0642299999999999e-06
0.669642, 1.06711e-06
0.679635, 1.0704199999999999e-06
0.689629, 1.07067e-06
0.699623, 1.0747999999999999e-06
0.709617, 1.0758000000000001e-06
0.719611, 1.07786e-06
0.729605, 1.08224e-06
0.739599, 1.08217e-06
0.749593, 1.0844199999999999e-06
0.759587, 1.08667e-06
0.769581, 1.08842e-06
0.779574, 1.0923599999999999e-06
0.789568, 1.0929199999999999e-06
0.799562, 1.0963e-06
0.809556, 1.1002400000000001e-06
0.81955, 1.10117e-06
0.829544, 1.10424e-06
0.839538, 1.10717e-06
0.849532, 1.1101099999999998e-06
0.859526, 1.11311e-06
0.86952, 1.11449e-06
0.879513, 1.11917e-06
0.889507, 1.11986e-06
0.899501, 1.12236e-06
0.909495, 1.1277999999999998e-06
0.919489, 1.1274200000000001e-06
0.929483, 1.1333599999999998e-06
0.939477, 1.1349899999999999e-06
0.949471, 1.1393599999999998e-06
0.959465, 1.1423e-06
0.969459, 1.1452999999999999e-06
0.979453, 1.15074e-06
0.989446, 1.1549899999999999e-06
0.99944, 1.15805e-06
1.00943, 1.1639200000000001e-06
1.01943, 1.16849e-06
1.02942, 1.1737999999999999e-06
1.03942, 1.1794199999999998e-06
1.04941, 1.1854199999999998e-06
1.0594, 1.19492e-06
1.0694, 1.20142e-06
1.07939, 1.2101699999999999e-06
1.08939, 1.2206099999999999e-06
1.09938, 1.22905e-06
1.10937, 1.23774e-06
1.11937, 1.2511799999999999e-06
1.12936, 1.26174e-06
1.13935, 1.2708600000000001e-06
1.14935, 1.28618e-06
1.15934, 1.29886e-06
1.16934, 1.31286e-06
1.17933, 1.32674e-06
1.18932, 1.3417399999999998e-06
1.19932, 1.3574299999999999e-06
1.20931, 1.3743599999999999e-06
1.21931, 1.3913e-06
1.2293, 1.4088e-06
1.23929, 1.4274899999999998e-06
1.24929, 1.44943e-06
1.25928, 1.4674899999999999e-06
1.26928, 1.4847999999999997e-06
1.27927, 1.50649e-06
1.28926, 1.5283699999999999e-06
1.29926, 1.5508699999999999e-06
1.30925, 1.57099e-06
1.31925, 1.5953399999999998e-06
1.32924, 1.6178399999999998e-06
1.33923, 1.64284e-06
1.34923, 1.66596e-06
1.35922, 1.68971e-06
1.36921, 1.71659e-06
1.37921, 1.73784e-06
1.3892, 1.76284e-06
1.3992, 1.7940899999999998e-06
1.40919, 1.8197199999999998e-06
1.41918, 1.84721e-06
1.42918, 1.8778399999999999e-06
1.43917, 1.90847e-06
1.44917, 1.93534e-06
1.45916, 1.96909e-06
1.46915, 1.99972e-06
1.47915, 2.03534e-06
1.48914, 2.0703399999999997e-06
1.49914, 2.10097e-06
1.50913, 2.13847e-06
1.51912, 2.1747200000000002e-06
1.52912, 2.21035e-06
1.53911, 2.24847e-06
1.5491, 2.28785e-06
1.5591, 2.32472e-06
1.56909, 2.3678499999999997e-06
1.57909, 2.40847e-06
1.58908, 2.44535e-06
1.59907, 2.48472e-06
1.60907, 2.53098e-06
1.61906, 2.57598e-06
1.62906, 2.61973e-06
1.63905, 2.6734799999999998e-06
1.64904, 2.72223e-06
1.65904, 2.7741099999999997e-06
1.66903, 2.82598e-06
1.67903, 2.8791099999999995e-06
1.68902, 2.93786e-06
1.69901, 3.00223e-06
1.70901, 3.06098e-06
1.719, 3.12849e-06
1.729, 3.1941099999999995e-06
1.73899, 3.26536e-06
1.74898, 3.33786e-06
1.75898, 3.41786e-06
1.76897, 3.49349e-06
1.77896, 3.5803699999999997e-06
1.78896, 3.66349e-06
1.79895, 3.75599e-06
1.80895, 3.85475e-06
1.81894, 3.9534999999999995e-06
1.82893, 4.05725e-06
1.83893, 4.169749999999999e-06
1.84892, 4.28413e-06
1.85892, 4.407879999999999e-06
1.86891, 4.53413e-06
1.8789, 4.672259999999999e-06
1.8889, 4.811009999999999e-06
1.89889, 4.95789e-06
1.90889, 5.1222700000000005e-06
1.91888, 5.29352e-06
1.92887, 5.465399999999999e-06
1.93887, 5.6516499999999995e-06
1.94886, 5.8435300000000004e-06
1.95885, 6.05353e-06
1.96885, 6.25791e-06
1.97884, 6.49354e-06
1.98884, 6.7341699999999994e-06
1.99883, 6.99605e-06
2.00882, 7.2597999999999995e-06
1.99883, 5.6091499999999995e-06
1.98884, 4.53351e-06
1.97884, 3.77787e-06
1.96885, 3.2009899999999997e-06
1.95885, 2.7609799999999998e-06
1.94886, 2.40597e-06
1.93887, 2.12347e-06
1.92887, 1.88409e-06
1.91888, 1.68784e-06
1.90889, 1.5253399999999999e-06
1.89889, 1.37971e-06
1.8889, 1.25971e-06
1.8789, 1.1522099999999998e-06
1.86891, 1.05783e-06
1.85892, 9.72202e-07
1.84892, 8.99076e-07
1.83893, 8.334489999999999e-07
1.82893, 7.7595e-07
1.81894, 7.21574e-07
1.80895, 6.72197e-07
1.79895, 6.284479999999999e-07
1.78896, 5.84071e-07
1.77896, 5.45945e-07
1.76897, 5.115699999999999e-07
1.75898, 4.771949999999999e-07
1.74898, 4.4531799999999996e-07
1.73899, 4.18444e-07
1.729, 3.8969299999999997e-07
1.719, 3.6531699999999996e-07
1.70901, 3.3609899999999997e-07
1.69901, 3.14661e-07
1.68902, 2.9009800000000003e-07
1.67903, 2.6840999999999995e-07
1.66903, 2.46535e-07
1.65904, 2.2841e-07
1.64904, 2.05847e-07
1.63905, 1.88784e-07
1.62906, 1.68534e-07
1.61906, 1.52971e-07
1.60907, 1.3553299999999997e-07
1.59907, 1.1828299999999999e-07
1.58908, 1.0265799999999999e-07
1.57909, 8.4595e-08
1.56909, 7.24699e-08
1.5591, 5.546949999999999e-08
1.5491, 4.0594299999999996e-08
1.53911, 2.83442e-08
1.52912, 1.14064e-08
1.51912, -1.28126e-09
1.50913, -1.66566e-08
1.49914, -2.8031599999999997e-08
1.48914, -4.0885e-08
1.47915, -5.386019999999999e-08
1.46915, -6.68542e-08
1.45916, -8.05044e-08
1.44917, -9.182329999999999e-08
1.43917, -1.0412299999999999e-07
1.42918, -1.1597399999999999e-07
1.41918, -1.27255e-07
1.40919, -1.39705e-07
1.3992, -1.5024899999999998e-07
1.3892, -1.59256e-07
1.37921, -1.71356e-07
1.36921, -1.81293e-07
1.35922, -1.9278400000000001e-07
1.34923, -2.0209699999999999e-07
1.33923, -2.1240899999999998e-07
1.32924, -2.2284699999999998e-07
1.31925, -2.3353499999999998e-07
1.30925, -2.4390999999999997e-07
1.29926, -2.54473e-07
1.28926, -2.6309799999999996e-07
1.27927, -2.73348e-07
1.26928, -2.84098e-07
1.25928, -2.92598e-07
1.24929, -3.03286e-07
1.23929, -3.13286e-07
1.2293, -3.21349e-07
1.21931, -3.26974e-07
1.20931, -3.3778599999999995e-07
1.19932, -3.4803699999999996e-07
1.18932, -3.55474e-07
1.17933, -3.64537e-07
1.16934, -3.74974e-07
1.15934, -3.8191199999999996e-07
1.14935, -3.92475e-07
1.13935, -3.99287e-07
1.12936, -4.0935e-07
1.11937, -4.16975e-07
1.10937, -4.24725e-07
1.09938, -4.35163e-07
1.08939, -4.45476e-07
1.07939, -4.5197599999999994e-07
1.0694, -4.61351e-07
1.0594, -4.7110099999999995e-07
1.04941, -4.78976e-07
1.03942, -4.88226e-07
1.02942, -4.95726e-07
1.01943, -5.052259999999999e-07
1.00943, -5.137270000000001e-07
0.99944, -5.22539e-07
0.989446, -5.321639999999999e-07
0.979453, -5.3879e-07
0.969459, -5.474769999999999e-07
0.959465, -5.55477e-07
0.949471, -5.650399999999999e-07
0.939477, -5.714149999999999e-07
0.929483, -5.78978e-07
0.919489, -5.86603e-07
0.909495, -5.9404e-07
0.899501, -6.03603e-07
0.889507, -6.104159999999999e-07
0.879513, -6.17103e-07
0.86952, -6.24291e-07
0.859526, -6.31166e-07
0.849532, -6.38791e-07
0.839538, -6.44916e-07
0.829544, -6.496039999999999e-07
0.81955, -6.57541e-07
0.809556, -6.62729e-07
0.799562, -6.69042e-07
0.789568, -6.73979e-07
0.779574, -6.783539999999999e-07
0.769581, -6.83542e-07
0.759587, -6.868539999999999e-07
0.749593, -6.90604e-07
0.739599, -6.96729e-07
0.729605, -6.991039999999999e-07
0.719611, -7.037919999999999e-07
0.709617, -7.061669999999999e-07
0.699623, -7.090419999999999e-07
0.689629, -7.109799999999999e-07
0.679635, -7.154799999999999e-07
0.669642, -7.1623e-07
0.659648, -7.1748e-07
0.649654, -7.2123e-07
0.63966, -7.230419999999999e-07
0.629666, -7.24855e-07
0.619672, -7.26417e-07
0.609678, -7.271669999999999e-07
0.599684, -7.265419999999999e-07
0.58969, -7.29105e-07
0.579696, -7.3023e-07
0.569703, -7.324169999999999e-07
0.559709, -7.3448e-07
0.549715, -7.3623e-07
0.539721, -7.389799999999999e-07
0.529727, -7.389799999999999e-07
0.519733, -7.38668e-07
0.509739, -7.4098e-07
0.499745, -7.39418e-07
0.489751, -7.41605e-07
0.479757, -7.3998e-07
0.469764, -7.37605e-07
0.45977, -7.359799999999999e-07
0.449776, -7.34418e-07
0.439782, -7.33355e-07
0.429788, -7.31167e-07
0.419794, -7.29417e-07
0.4098, -7.29542e-07
0.399806, -7.27042e-07
0.389812, -7.23855e-07
0.379818, -7.22355e-07
0.369824, -7.21105e-07
0.35983, -7.20917e-07
0.349837, -7.206050000000001e-07
0.339843, -7.1848e-07
0.329849, -7.1723e-07
0.319855, -7.165419999999999e-07
0.309861, -7.165419999999999e-07
0.299867, -7.16292e-07
0.289873, -7.15605e-07
0.279879, -7.15667e-07
0.269885, -7.16214e-07
0.259891, -7.165419999999999e-07
0.249897, -7.17042e-07
0.239904, -7.17292e-07
0.22991, -7.18605e-07
0.219916, -7.206669999999999e-07
0.209922, -7.207299999999999e-07
0.199928, -7.22792e-07
0.189934, -7.2273e-07
0.17994, -7.26105e-07
0.169946, -7.265419999999999e-07
0.159952, -7.28167e-07
0.149958, -7.28917e-07
0.139964, -7.307919999999999e-07
0.129971, -7.3248e-07
0.119977, -7.349179999999999e-07
0.109983, -7.379799999999999e-07
0.099989, -7.39293e-07
0.089995, -7.41043e-07
0.080001, -7.43918e-07
0.0700074, -7.472299999999999e-07
0.0600134, -7.47855e-07
0.0500195, -7.502299999999999e-07
0.0400255, -7.519799999999999e-07
0.0300315, -7.5548e-07
0.0200379, -7.57043e-07
0.0100439, -7.600429999999999e-07
##END=$$ End of the data block
