##TITLE=Spectrum
##JCAMP-DX=5.00 $$ chemotion-converter-app (1.1.0)
##DATA TYPE=SIZE EXCLUSION CHROMATOGRAPHY
##DATA CLASS=XYPOINTS
##ORIGIN=
##OWNER=
##XUNITS=G/MOL
##YUNITS=ARBITRARY UNITS
##NO_DEC=1
##SOFTWARE=WINGPC
##VERSION=8#1
##FIRSTX=3.98005E+3
##LASTX=6.59585E+6
##MINX=3980.05
##MAXX=6595850.0
##MINY=0.0
##MAXY=0.731103
##NPOINTS=836
##FIRSTY=6.35781E-3
##XUNITS=G/MOL
##YUNITS=ARBITRARY UNITS
##XYPOINTS=(XY..XY)
3.98005E+3, 6.35781E-3
4.01554E+3, 6.58494E-3
4.05135E+3, 6.63881E-3
4.08748E+3, 6.78613E-3
4.12393E+3, 6.83282E-3
4.16070E+3, 6.97880E-3
4.19780E+3, 7.02239E-3
4.23523E+3, 7.29343E-3
4.27300E+3, 7.38103E-3
4.31110E+3, 7.58654E-3
4.34955E+3, 7.69014E-3
4.38833E+3, 7.86339E-3
4.42747E+3, 7.92729E-3
4.46695E+3, 8.19693E-3
4.50678E+3, 8.32457E-3
4.54697E+3, 8.58378E-3
4.58751E+3, 8.79923E-3
4.62842E+3, 8.97079E-3
4.66969E+3, 9.10394E-3
4.71134E+3, 9.36051E-3
4.75335E+3, 9.55161E-3
4.79573E+3, 9.85492E-3
4.83850E+3, 1.01738E-2
4.88164E+3, 1.03298E-2
4.92518E+3, 1.04843E-2
4.96909E+3, 1.06389E-2
5.01341E+3, 1.08362E-2
5.05811E+3, 1.10257E-2
5.10322E+3, 1.13440E-2
5.14872E+3, 1.15940E-2
5.19463E+3, 1.18918E-2
5.24096E+3, 1.20124E-2
5.28769E+3, 1.21197E-2
5.33484E+3, 1.21386E-2
5.38242E+3, 1.22750E-2
5.43041E+3, 1.23221E-2
5.47884E+3, 1.25418E-2
5.52769E+3, 1.27317E-2
5.57698E+3, 1.29978E-2
5.62672E+3, 1.32055E-2
5.67689E+3, 1.35173E-2
5.72751E+3, 1.36470E-2
5.77859E+3, 1.39369E-2
5.83012E+3, 1.41453E-2
5.88210E+3, 1.43304E-2
5.93456E+3, 1.45591E-2
5.98748E+3, 1.48200E-2
6.04087E+3, 1.50432E-2
6.09474E+3, 1.53145E-2
6.14908E+3, 1.55349E-2
6.20392E+3, 1.57033E-2
6.25924E+3, 1.59399E-2
6.31505E+3, 1.61098E-2
6.37137E+3, 1.64113E-2
6.42818E+3, 1.66684E-2
6.48550E+3, 1.69765E-2
6.54334E+3, 1.71661E-2
6.60169E+3, 1.75659E-2
6.66055E+3, 1.77624E-2
6.71995E+3, 1.82020E-2
6.77987E+3, 1.85580E-2
6.84033E+3, 1.89154E-2
6.90133E+3, 1.91636E-2
6.96287E+3, 1.94763E-2
7.02496E+3, 1.96373E-2
7.08760E+3, 1.98484E-2
7.15080E+3, 2.01138E-2
7.21457E+3, 2.03324E-2
7.27890E+3, 2.06389E-2
7.34381E+3, 2.09197E-2
7.40930E+3, 2.13187E-2
7.47537E+3, 2.16325E-2
7.54203E+3, 2.20239E-2
7.60928E+3, 2.22072E-2
7.67713E+3, 2.25811E-2
7.74559E+3, 2.27587E-2
7.81466E+3, 2.31365E-2
7.88435E+3, 2.34197E-2
7.95465E+3, 2.37479E-2
8.02559E+3, 2.40802E-2
8.09715E+3, 2.45296E-2
8.16936E+3, 2.48786E-2
8.24221E+3, 2.53609E-2
8.31570E+3, 2.58431E-2
8.38986E+3, 2.60694E-2
8.46467E+3, 2.64727E-2
8.54015E+3, 2.67686E-2
8.61631E+3, 2.72603E-2
8.69314E+3, 2.77223E-2
8.77066E+3, 2.83834E-2
8.84887E+3, 2.87882E-2
8.92778E+3, 2.94196E-2
9.00739E+3, 2.97665E-2
9.08771E+3, 3.04452E-2
9.16875E+3, 3.09981E-2
9.25051E+3, 3.16274E-2
9.33300E+3, 3.22916E-2
9.41622E+3, 3.29886E-2
9.50019E+3, 3.37026E-2
9.58490E+3, 3.43457E-2
9.67038E+3, 3.51602E-2
9.75661E+3, 3.58375E-2
9.84361E+3, 3.67760E-2
9.93139E+3, 3.74147E-2
1.00199E+4, 3.83350E-2
1.01093E+4, 3.89568E-2
1.01994E+4, 3.96672E-2
1.02904E+4, 4.04121E-2
1.03822E+4, 4.11502E-2
1.04747E+4, 4.19514E-2
1.05681E+4, 4.27339E-2
1.06624E+4, 4.35159E-2
1.07575E+4, 4.41683E-2
1.08534E+4, 4.50751E-2
1.09502E+4, 4.56453E-2
1.10478E+4, 4.66455E-2
1.11463E+4, 4.74834E-2
1.12457E+4, 4.83635E-2
1.13460E+4, 4.92357E-2
1.14472E+4, 5.00804E-2
1.15493E+4, 5.09282E-2
1.16523E+4, 5.18404E-2
1.17562E+4, 5.28320E-2
1.18610E+4, 5.35959E-2
1.19668E+4, 5.45935E-2
1.20735E+4, 5.51955E-2
1.21811E+4, 5.62805E-2
1.22898E+4, 5.68494E-2
1.23993E+4, 5.78316E-2
1.25099E+4, 5.85628E-2
1.26215E+4, 5.94676E-2
1.27340E+4, 6.03637E-2
1.28476E+4, 6.11518E-2
1.29621E+4, 6.19936E-2
1.30777E+4, 6.27292E-2
1.31943E+4, 6.35225E-2
1.33120E+4, 6.41701E-2
1.34307E+4, 6.49827E-2
1.35505E+4, 6.55451E-2
1.36713E+4, 6.65363E-2
1.37932E+4, 6.71202E-2
1.39162E+4, 6.78526E-2
1.40403E+4, 6.85833E-2
1.41655E+4, 6.91999E-2
1.42918E+4, 6.99700E-2
1.44193E+4, 7.06404E-2
1.45478E+4, 7.13364E-2
1.46776E+4, 7.19020E-2
1.48085E+4, 7.25741E-2
1.49405E+4, 7.31284E-2
1.50737E+4, 7.38161E-2
1.52081E+4, 7.44221E-2
1.53438E+4, 7.50508E-2
1.54806E+4, 7.56891E-2
1.56186E+4, 7.61478E-2
1.57579E+4, 7.68389E-2
1.58984E+4, 7.73458E-2
1.60402E+4, 7.81601E-2
1.61832E+4, 7.88073E-2
1.63275E+4, 7.95980E-2
1.64731E+4, 8.04355E-2
1.66200E+4, 8.12189E-2
1.67682E+4, 8.20676E-2
1.69178E+4, 8.29210E-2
1.70686E+4, 8.39857E-2
1.72208E+4, 8.48308E-2
1.73744E+4, 8.58945E-2
1.75293E+4, 8.67096E-2
1.76856E+4, 8.78953E-2
1.78433E+4, 8.87351E-2
1.80025E+4, 9.00003E-2
1.81630E+4, 9.12998E-2
1.83249E+4, 9.21276E-2
1.84884E+4, 9.35431E-2
1.86532E+4, 9.44045E-2
1.88196E+4, 9.58234E-2
1.89874E+4, 9.68657E-2
1.91567E+4, 9.82527E-2
1.93275E+4, 9.95355E-2
1.94999E+4, 1.00656E-1
1.96738E+4, 1.01970E-1
1.98492E+4, 1.03190E-1
2.00262E+4, 1.04580E-1
2.02048E+4, 1.05782E-1
2.03849E+4, 1.07357E-1
2.05667E+4, 1.08493E-1
2.07501E+4, 1.10000E-1
2.09351E+4, 1.11174E-1
2.11218E+4, 1.12517E-1
2.13102E+4, 1.13823E-1
2.15002E+4, 1.15015E-1
2.16919E+4, 1.16907E-1
2.18854E+4, 1.17798E-1
2.20805E+4, 1.19863E-1
2.22774E+4, 1.21146E-1
2.24761E+4, 1.22724E-1
2.26765E+4, 1.24383E-1
2.28787E+4, 1.25715E-1
2.30827E+4, 1.27469E-1
2.32886E+4, 1.28893E-1
2.34962E+4, 1.30577E-1
2.37057E+4, 1.31952E-1
2.39171E+4, 1.33438E-1
2.41304E+4, 1.34956E-1
2.43456E+4, 1.36353E-1
2.45627E+4, 1.37970E-1
2.47817E+4, 1.39387E-1
2.50027E+4, 1.40928E-1
2.52257E+4, 1.42287E-1
2.54506E+4, 1.43882E-1
2.56776E+4, 1.45257E-1
2.59065E+4, 1.46899E-1
2.61375E+4, 1.48328E-1
2.63706E+4, 1.49800E-1
2.66058E+4, 1.51516E-1
2.68430E+4, 1.52580E-1
2.70824E+4, 1.54146E-1
2.73239E+4, 1.55151E-1
2.75675E+4, 1.56744E-1
2.78134E+4, 1.57916E-1
2.80614E+4, 1.59169E-1
2.83116E+4, 1.60832E-1
2.85641E+4, 1.61662E-1
2.88188E+4, 1.63498E-1
2.90758E+4, 1.64519E-1
2.93350E+4, 1.66170E-1
2.95966E+4, 1.67548E-1
2.98606E+4, 1.68848E-1
3.01268E+4, 1.70427E-1
3.03955E+4, 1.71679E-1
3.06665E+4, 1.73534E-1
3.09400E+4, 1.74809E-1
3.12159E+4, 1.76439E-1
3.14942E+4, 1.78120E-1
3.17751E+4, 1.79640E-1
3.20584E+4, 1.81527E-1
3.23443E+4, 1.83175E-1
3.26327E+4, 1.85075E-1
3.29237E+4, 1.86628E-1
3.32173E+4, 1.88315E-1
3.35135E+4, 1.90017E-1
3.38124E+4, 1.91606E-1
3.41139E+4, 1.93369E-1
3.44181E+4, 1.94985E-1
3.47250E+4, 1.97013E-1
3.50346E+4, 1.98633E-1
3.53471E+4, 2.00366E-1
3.56623E+4, 2.02070E-1
3.59803E+4, 2.03856E-1
3.63011E+4, 2.05706E-1
3.66248E+4, 2.07467E-1
3.69514E+4, 2.09699E-1
3.72809E+4, 2.11446E-1
3.76134E+4, 2.13514E-1
3.79488E+4, 2.15292E-1
3.82872E+4, 2.17274E-1
3.86286E+4, 2.19173E-1
3.89730E+4, 2.20914E-1
3.93206E+4, 2.23121E-1
3.96712E+4, 2.24687E-1
4.00250E+4, 2.26667E-1
4.03819E+4, 2.28239E-1
4.07420E+4, 2.29928E-1
4.11053E+4, 2.31611E-1
4.14718E+4, 2.33106E-1
4.18416E+4, 2.34967E-1
4.22148E+4, 2.36568E-1
4.25912E+4, 2.38854E-1
4.29710E+4, 2.40650E-1
4.33542E+4, 2.42552E-1
4.37408E+4, 2.44604E-1
4.41308E+4, 2.46355E-1
4.45243E+4, 2.48789E-1
4.49214E+4, 2.50356E-1
4.53220E+4, 2.52596E-1
4.57261E+4, 2.54588E-1
4.61339E+4, 2.56538E-1
4.65452E+4, 2.58893E-1
4.69603E+4, 2.60816E-1
4.73791E+4, 2.63669E-1
4.78015E+4, 2.65616E-1
4.82278E+4, 2.67997E-1
4.86579E+4, 2.70319E-1
4.90918E+4, 2.72405E-1
4.95295E+4, 2.75064E-1
4.99712E+4, 2.77264E-1
5.04168E+4, 2.80317E-1
5.08664E+4, 2.82655E-1
5.13200E+4, 2.84961E-1
5.17776E+4, 2.87644E-1
5.22393E+4, 2.89769E-1
5.27051E+4, 2.92723E-1
5.31751E+4, 2.94931E-1
5.36493E+4, 2.97878E-1
5.41277E+4, 3.00720E-1
5.46104E+4, 3.03156E-1
5.50973E+4, 3.06095E-1
5.55887E+4, 3.08336E-1
5.60844E+4, 3.11454E-1
5.65845E+4, 3.13860E-1
5.70891E+4, 3.17022E-1
5.75981E+4, 3.20291E-1
5.81118E+4, 3.22686E-1
5.86299E+4, 3.25911E-1
5.91528E+4, 3.28255E-1
5.96802E+4, 3.31547E-1
6.02124E+4, 3.34272E-1
6.07494E+4, 3.37187E-1
6.12911E+4, 3.40564E-1
6.18376E+4, 3.42966E-1
6.23890E+4, 3.46205E-1
6.29454E+4, 3.48763E-1
6.35067E+4, 3.51943E-1
6.40730E+4, 3.54882E-1
6.46443E+4, 3.57498E-1
6.52208E+4, 3.60374E-1
6.58024E+4, 3.62792E-1
6.63892E+4, 3.65830E-1
6.69812E+4, 3.68397E-1
6.75785E+4, 3.70949E-1
6.81811E+4, 3.73796E-1
6.87891E+4, 3.76333E-1
6.94025E+4, 3.79233E-1
7.00213E+4, 3.81858E-1
7.06457E+4, 3.84595E-1
7.12757E+4, 3.87592E-1
7.19113E+4, 3.90234E-1
7.25525E+4, 3.93061E-1
7.31995E+4, 3.95667E-1
7.38523E+4, 3.98342E-1
7.45108E+4, 4.01087E-1
7.51752E+4, 4.03644E-1
7.58456E+4, 4.06769E-1
7.65219E+4, 4.09352E-1
7.72043E+4, 4.11946E-1
7.78927E+4, 4.14658E-1
7.85873E+4, 4.17064E-1
7.92881E+4, 4.20078E-1
7.99952E+4, 4.22475E-1
8.07085E+4, 4.25689E-1
8.14282E+4, 4.28288E-1
8.21543E+4, 4.31254E-1
8.28869E+4, 4.34577E-1
8.36260E+4, 4.36890E-1
8.43717E+4, 4.40482E-1
8.51241E+4, 4.42873E-1
8.58832E+4, 4.46031E-1
8.66490E+4, 4.48836E-1
8.74217E+4, 4.51384E-1
8.82012E+4, 4.55067E-1
8.89878E+4, 4.56925E-1
8.97813E+4, 4.60675E-1
9.05819E+4, 4.63244E-1
9.13896E+4, 4.66073E-1
9.22046E+4, 4.69525E-1
9.30268E+4, 4.71906E-1
9.38563E+4, 4.75495E-1
9.46933E+4, 4.78270E-1
9.55377E+4, 4.81542E-1
9.63896E+4, 4.84457E-1
9.72491E+4, 4.87043E-1
9.81163E+4, 4.90341E-1
9.89913E+4, 4.92812E-1
9.98740E+4, 4.96169E-1
1.00765E+5, 4.99260E-1
1.01663E+5, 5.02334E-1
1.02570E+5, 5.05535E-1
1.03484E+5, 5.08254E-1
1.04407E+5, 5.11500E-1
1.05338E+5, 5.14174E-1
1.06277E+5, 5.17118E-1
1.07225E+5, 5.20106E-1
1.08181E+5, 5.22541E-1
1.09146E+5, 5.25170E-1
1.10119E+5, 5.27571E-1
1.11101E+5, 5.30163E-1
1.12092E+5, 5.32973E-1
1.13092E+5, 5.35616E-1
1.14100E+5, 5.38933E-1
1.15117E+5, 5.41590E-1
1.16144E+5, 5.44127E-1
1.17180E+5, 5.47037E-1
1.18225E+5, 5.49334E-1
1.19279E+5, 5.52493E-1
1.20342E+5, 5.54716E-1
1.21416E+5, 5.57873E-1
1.22498E+5, 5.60812E-1
1.23591E+5, 5.62890E-1
1.24693E+5, 5.66351E-1
1.25805E+5, 5.68082E-1
1.26926E+5, 5.71642E-1
1.28058E+5, 5.73711E-1
1.29200E+5, 5.76317E-1
1.30352E+5, 5.78967E-1
1.31515E+5, 5.81060E-1
1.32687E+5, 5.84285E-1
1.33871E+5, 5.86169E-1
1.35064E+5, 5.88849E-1
1.36269E+5, 5.91151E-1
1.37484E+5, 5.93255E-1
1.38710E+5, 5.95659E-1
1.39947E+5, 5.97582E-1
1.41195E+5, 6.00161E-1
1.42454E+5, 6.02320E-1
1.43724E+5, 6.04316E-1
1.45006E+5, 6.06615E-1
1.46299E+5, 6.08659E-1
1.47603E+5, 6.10840E-1
1.48920E+5, 6.13090E-1
1.50248E+5, 6.15288E-1
1.51587E+5, 6.17767E-1
1.52939E+5, 6.19744E-1
1.54303E+5, 6.21989E-1
1.55679E+5, 6.24319E-1
1.57067E+5, 6.26218E-1
1.58468E+5, 6.28822E-1
1.59881E+5, 6.30815E-1
1.61307E+5, 6.33151E-1
1.62745E+5, 6.35231E-1
1.64196E+5, 6.36992E-1
1.65660E+5, 6.39510E-1
1.67138E+5, 6.40958E-1
1.68628E+5, 6.43522E-1
1.70132E+5, 6.45066E-1
1.71649E+5, 6.47264E-1
1.73179E+5, 6.49442E-1
1.74724E+5, 6.50907E-1
1.76282E+5, 6.53072E-1
1.77854E+5, 6.54600E-1
1.79440E+5, 6.56627E-1
1.81040E+5, 6.58404E-1
1.82654E+5, 6.60117E-1
1.84283E+5, 6.62223E-1
1.85926E+5, 6.63891E-1
1.87584E+5, 6.65640E-1
1.89257E+5, 6.67515E-1
1.90945E+5, 6.69011E-1
1.92647E+5, 6.70923E-1
1.94365E+5, 6.72462E-1
1.96098E+5, 6.74234E-1
1.97847E+5, 6.76206E-1
1.99611E+5, 6.77351E-1
2.01391E+5, 6.79478E-1
2.03187E+5, 6.80599E-1
2.04999E+5, 6.82332E-1
2.06827E+5, 6.83794E-1
2.08671E+5, 6.85063E-1
2.10532E+5, 6.87096E-1
2.12409E+5, 6.87960E-1
2.14304E+5, 6.89769E-1
2.16215E+5, 6.91050E-1
2.18143E+5, 6.92421E-1
2.20088E+5, 6.93936E-1
2.22050E+5, 6.95175E-1
2.24031E+5, 6.96853E-1
2.26028E+5, 6.98135E-1
2.28044E+5, 6.99437E-1
2.30077E+5, 7.00835E-1
2.32129E+5, 7.02006E-1
2.34199E+5, 7.03288E-1
2.36287E+5, 7.04520E-1
2.38394E+5, 7.05728E-1
2.40520E+5, 7.07200E-1
2.42665E+5, 7.08106E-1
2.44829E+5, 7.09337E-1
2.47012E+5, 7.10427E-1
2.49215E+5, 7.11343E-1
2.51437E+5, 7.12566E-1
2.53679E+5, 7.13351E-1
2.55941E+5, 7.14662E-1
2.58224E+5, 7.15426E-1
2.60526E+5, 7.16293E-1
2.62849E+5, 7.17296E-1
2.65193E+5, 7.17996E-1
2.67558E+5, 7.18992E-1
2.69944E+5, 7.19813E-1
2.72351E+5, 7.20698E-1
2.74780E+5, 7.21538E-1
2.77230E+5, 7.22217E-1
2.79702E+5, 7.23033E-1
2.82196E+5, 7.23746E-1
2.84713E+5, 7.24428E-1
2.87252E+5, 7.25179E-1
2.89813E+5, 7.25713E-1
2.92397E+5, 7.26368E-1
2.95005E+5, 7.26806E-1
2.97635E+5, 7.27271E-1
3.00290E+5, 7.27854E-1
3.02967E+5, 7.28085E-1
3.05669E+5, 7.28712E-1
3.08395E+5, 7.28959E-1
3.11145E+5, 7.29346E-1
3.13919E+5, 7.29645E-1
3.16719E+5, 7.29853E-1
3.19543E+5, 7.30222E-1
3.22392E+5, 7.30354E-1
3.25267E+5, 7.30634E-1
3.28168E+5, 7.30813E-1
3.31094E+5, 7.30937E-1
3.34046E+5, 7.31084E-1
3.37025E+5, 7.31103E-1
3.40031E+5, 7.31088E-1
3.43063E+5, 7.31071E-1
3.46122E+5, 7.31006E-1
3.49208E+5, 7.30982E-1
3.52322E+5, 7.30910E-1
3.55464E+5, 7.30803E-1
3.58634E+5, 7.30647E-1
3.61832E+5, 7.30394E-1
3.65058E+5, 7.30088E-1
3.68314E+5, 7.29739E-1
3.71598E+5, 7.29353E-1
3.74912E+5, 7.28953E-1
3.78255E+5, 7.28583E-1
3.81628E+5, 7.28179E-1
3.85031E+5, 7.27820E-1
3.88464E+5, 7.27385E-1
3.91928E+5, 7.26917E-1
3.95423E+5, 7.26417E-1
3.98949E+5, 7.25834E-1
4.02507E+5, 7.25259E-1
4.06096E+5, 7.24580E-1
4.09717E+5, 7.23898E-1
4.13371E+5, 7.23255E-1
4.17057E+5, 7.22503E-1
4.20776E+5, 7.21764E-1
4.24528E+5, 7.20985E-1
4.28314E+5, 7.20124E-1
4.32133E+5, 7.19357E-1
4.35987E+5, 7.18388E-1
4.39875E+5, 7.17667E-1
4.43797E+5, 7.16859E-1
4.47754E+5, 7.15979E-1
4.51747E+5, 7.15223E-1
4.55776E+5, 7.14175E-1
4.59840E+5, 7.13301E-1
4.63940E+5, 7.12122E-1
4.68077E+5, 7.10936E-1
4.72251E+5, 7.09873E-1
4.76463E+5, 7.08616E-1
4.80711E+5, 7.07495E-1
4.84998E+5, 7.06249E-1
4.89323E+5, 7.04967E-1
4.93686E+5, 7.03770E-1
4.98088E+5, 7.02389E-1
5.02530E+5, 7.01169E-1
5.07011E+5, 6.99839E-1
5.11532E+5, 6.98363E-1
5.16094E+5, 6.97339E-1
5.20696E+5, 6.95688E-1
5.25339E+5, 6.94554E-1
5.30024E+5, 6.93038E-1
5.34750E+5, 6.91323E-1
5.39519E+5, 6.90180E-1
5.44330E+5, 6.88311E-1
5.49184E+5, 6.87032E-1
5.54081E+5, 6.85253E-1
5.59022E+5, 6.83632E-1
5.64007E+5, 6.82084E-1
5.69036E+5, 6.80349E-1
5.74110E+5, 6.78775E-1
5.79230E+5, 6.77117E-1
5.84395E+5, 6.75341E-1
5.89606E+5, 6.73665E-1
5.94864E+5, 6.71814E-1
6.00168E+5, 6.70084E-1
6.05520E+5, 6.68370E-1
6.10920E+5, 6.66338E-1
6.16367E+5, 6.64771E-1
6.21864E+5, 6.62568E-1
6.27409E+5, 6.60738E-1
6.33004E+5, 6.58930E-1
6.38648E+5, 6.56862E-1
6.44343E+5, 6.55252E-1
6.50089E+5, 6.53035E-1
6.55886E+5, 6.51351E-1
6.61735E+5, 6.49187E-1
6.67636E+5, 6.47011E-1
6.73589E+5, 6.45129E-1
6.79596E+5, 6.43006E-1
6.85656E+5, 6.41059E-1
6.91770E+5, 6.39048E-1
6.97939E+5, 6.36822E-1
7.04162E+5, 6.34893E-1
7.10442E+5, 6.32468E-1
7.16777E+5, 6.30410E-1
7.23168E+5, 6.28172E-1
7.29617E+5, 6.25439E-1
7.36123E+5, 6.23873E-1
7.42688E+5, 6.20851E-1
7.49310E+5, 6.19002E-1
7.55992E+5, 6.16495E-1
7.62733E+5, 6.14013E-1
7.69535E+5, 6.11755E-1
7.76397E+5, 6.08700E-1
7.83320E+5, 6.06627E-1
7.90305E+5, 6.03929E-1
7.97353E+5, 6.01359E-1
8.04463E+5, 5.98940E-1
8.11637E+5, 5.96199E-1
8.18874E+5, 5.93562E-1
8.26176E+5, 5.90667E-1
8.33543E+5, 5.87478E-1
8.40976E+5, 5.84913E-1
8.48476E+5, 5.81505E-1
8.56042E+5, 5.78590E-1
8.63675E+5, 5.75579E-1
8.71377E+5, 5.72095E-1
8.79147E+5, 5.69501E-1
8.86987E+5, 5.65292E-1
8.94896E+5, 5.62695E-1
9.02876E+5, 5.59437E-1
9.10927E+5, 5.55992E-1
9.19050E+5, 5.53028E-1
9.27246E+5, 5.49428E-1
9.35514E+5, 5.46214E-1
9.43856E+5, 5.42546E-1
9.52273E+5, 5.38953E-1
9.60765E+5, 5.35699E-1
9.69332E+5, 5.32002E-1
9.77976E+5, 5.28269E-1
9.86697E+5, 5.24398E-1
9.95495E+5, 5.19785E-1
1.00437E+6, 5.16480E-1
1.01333E+6, 5.11818E-1
1.02236E+6, 5.07745E-1
1.03148E+6, 5.03696E-1
1.04068E+6, 4.98683E-1
1.04996E+6, 4.94988E-1
1.05932E+6, 4.89102E-1
1.06877E+6, 4.85171E-1
1.07830E+6, 4.80704E-1
1.08791E+6, 4.75793E-1
1.09762E+6, 4.71621E-1
1.10740E+6, 4.66599E-1
1.11728E+6, 4.62296E-1
1.12724E+6, 4.57608E-1
1.13729E+6, 4.52453E-1
1.14743E+6, 4.47945E-1
1.15767E+6, 4.43079E-1
1.16799E+6, 4.37964E-1
1.17841E+6, 4.33411E-1
1.18891E+6, 4.27585E-1
1.19952E+6, 4.23385E-1
1.21021E+6, 4.17175E-1
1.22100E+6, 4.11791E-1
1.23189E+6, 4.07658E-1
1.24288E+6, 4.01289E-1
1.25396E+6, 3.97491E-1
1.26514E+6, 3.91101E-1
1.27642E+6, 3.86774E-1
1.28780E+6, 3.81366E-1
1.29929E+6, 3.75567E-1
1.31087E+6, 3.71244E-1
1.32256E+6, 3.65834E-1
1.33436E+6, 3.61142E-1
1.34626E+6, 3.56111E-1
1.35826E+6, 3.50610E-1
1.37037E+6, 3.46075E-1
1.38259E+6, 3.40577E-1
1.39492E+6, 3.35298E-1
1.40736E+6, 3.31339E-1
1.41991E+6, 3.25567E-1
1.43257E+6, 3.21957E-1
1.44535E+6, 3.16339E-1
1.45824E+6, 3.12075E-1
1.47124E+6, 3.07663E-1
1.48436E+6, 3.02511E-1
1.49759E+6, 2.98738E-1
1.51095E+6, 2.92935E-1
1.52442E+6, 2.88985E-1
1.53802E+6, 2.84800E-1
1.55173E+6, 2.80518E-1
1.56557E+6, 2.76837E-1
1.57953E+6, 2.72758E-1
1.59361E+6, 2.68884E-1
1.60782E+6, 2.64898E-1
1.62216E+6, 2.60654E-1
1.63663E+6, 2.57118E-1
1.65122E+6, 2.53269E-1
1.66595E+6, 2.49369E-1
1.68080E+6, 2.46185E-1
1.69579E+6, 2.42001E-1
1.71091E+6, 2.39236E-1
1.72617E+6, 2.35012E-1
1.74156E+6, 2.31567E-1
1.75709E+6, 2.28843E-1
1.77276E+6, 2.25069E-1
1.78857E+6, 2.22592E-1
1.80452E+6, 2.18895E-1
1.82061E+6, 2.16170E-1
1.83684E+6, 2.13028E-1
1.85322E+6, 2.09727E-1
1.86975E+6, 2.07178E-1
1.88642E+6, 2.04286E-1
1.90324E+6, 2.01596E-1
1.92021E+6, 1.98979E-1
1.93734E+6, 1.95959E-1
1.95461E+6, 1.93492E-1
1.97204E+6, 1.90671E-1
1.98963E+6, 1.88072E-1
2.00737E+6, 1.85590E-1
2.02527E+6, 1.82404E-1
2.04333E+6, 1.80492E-1
2.06155E+6, 1.77279E-1
2.07993E+6, 1.74888E-1
2.09848E+6, 1.72318E-1
2.11719E+6, 1.69044E-1
2.13607E+6, 1.67096E-1
2.15512E+6, 1.63981E-1
2.17434E+6, 1.61645E-1
2.19373E+6, 1.58994E-1
2.21329E+6, 1.56340E-1
2.23303E+6, 1.53933E-1
2.25294E+6, 1.51063E-1
2.27303E+6, 1.48610E-1
2.29330E+6, 1.46329E-1
2.31375E+6, 1.43601E-1
2.33438E+6, 1.41467E-1
2.35520E+6, 1.39022E-1
2.37620E+6, 1.36553E-1
2.39739E+6, 1.34369E-1
2.41877E+6, 1.31524E-1
2.44034E+6, 1.29232E-1
2.46210E+6, 1.26383E-1
2.48405E+6, 1.24195E-1
2.50620E+6, 1.22106E-1
2.52855E+6, 1.19647E-1
2.55110E+6, 1.17742E-1
2.57385E+6, 1.15163E-1
2.59680E+6, 1.12820E-1
2.61996E+6, 1.10370E-1
2.64332E+6, 1.07850E-1
2.66689E+6, 1.05597E-1
2.69067E+6, 1.03083E-1
2.71466E+6, 1.00627E-1
2.73887E+6, 9.81719E-2
2.76329E+6, 9.55163E-2
2.78794E+6, 9.33703E-2
2.81280E+6, 9.09876E-2
2.83788E+6, 8.85500E-2
2.86318E+6, 8.65339E-2
2.88872E+6, 8.38163E-2
2.91448E+6, 8.20469E-2
2.94046E+6, 7.91731E-2
2.96669E+6, 7.68090E-2
2.99314E+6, 7.48608E-2
3.01983E+6, 7.22249E-2
3.04676E+6, 7.04447E-2
3.07393E+6, 6.79179E-2
3.10134E+6, 6.60044E-2
3.12899E+6, 6.37588E-2
3.15690E+6, 6.13417E-2
3.18505E+6, 5.94288E-2
3.21345E+6, 5.72780E-2
3.24210E+6, 5.52394E-2
3.27102E+6, 5.32914E-2
3.30018E+6, 5.10430E-2
3.32961E+6, 4.92552E-2
3.35930E+6, 4.71776E-2
3.38926E+6, 4.52456E-2
3.41948E+6, 4.34151E-2
3.44997E+6, 4.11022E-2
3.48074E+6, 3.97565E-2
3.51178E+6, 3.76749E-2
3.54309E+6, 3.61286E-2
3.57469E+6, 3.45604E-2
3.60656E+6, 3.27915E-2
3.63872E+6, 3.14109E-2
3.67117E+6, 2.94284E-2
3.70391E+6, 2.80129E-2
3.73694E+6, 2.65272E-2
3.77026E+6, 2.50069E-2
3.80388E+6, 2.36747E-2
3.83780E+6, 2.22706E-2
3.87202E+6, 2.09380E-2
3.90655E+6, 1.96101E-2
3.94139E+6, 1.81852E-2
3.97653E+6, 1.70486E-2
4.01199E+6, 1.58322E-2
4.04777E+6, 1.46629E-2
4.08386E+6, 1.37329E-2
4.12028E+6, 1.26080E-2
4.15702E+6, 1.18260E-2
4.19409E+6, 1.06998E-2
4.23149E+6, 9.72833E-3
4.26922E+6, 8.89057E-3
4.30729E+6, 7.91101E-3
4.34570E+6, 7.23556E-3
4.38446E+6, 6.43915E-3
4.42355E+6, 5.84064E-3
4.46300E+6, 5.22721E-3
4.50280E+6, 4.62714E-3
4.54295E+6, 4.13344E-3
4.58346E+6, 3.64162E-3
4.62433E+6, 3.20003E-3
4.66557E+6, 2.83897E-3
4.70717E+6, 2.49345E-3
4.74915E+6, 2.21810E-3
4.79150E+6, 1.94158E-3
4.83422E+6, 1.68751E-3
4.87733E+6, 1.45359E-3
4.92082E+6, 1.22375E-3
4.96470E+6, 1.01536E-3
5.00897E+6, 8.18374E-4
5.05364E+6, 6.21997E-4
5.09871E+6, 4.33914E-4
5.14417E+6, 2.66067E-4
5.19004E+6, 9.68885E-5
5.23632E+6, 1.52140E-5
5.28302E+6, 0.00000E+0
5.33013E+6, 0.00000E+0
5.37766E+6, 0.00000E+0
5.42561E+6, 0.00000E+0
5.47399E+6, 0.00000E+0
5.52281E+6, 0.00000E+0
5.57206E+6, 0.00000E+0
5.62174E+6, 0.00000E+0
5.67187E+6, 0.00000E+0
5.72245E+6, 0.00000E+0
5.77348E+6, 0.00000E+0
5.82496E+6, 0.00000E+0
5.87691E+6, 0.00000E+0
5.92931E+6, 0.00000E+0
5.98218E+6, 0.00000E+0
6.03553E+6, 0.00000E+0
6.08935E+6, 0.00000E+0
6.14365E+6, 0.00000E+0
6.19843E+6, 0.00000E+0
6.25371E+6, 0.00000E+0
6.30947E+6, 0.00000E+0
6.36574E+6, 0.00000E+0
6.42250E+6, 0.00000E+0
6.47977E+6, 0.00000E+0
6.53755E+6, 6.91621E-6
6.59585E+6, 0.00000E+0
##END=$$ End of the data block
