##TITLE=Spectrum
##JCAMP-DX=5.00 $$ chemotion-converter-app (1.5.0)
##DATA TYPE=SIZE EXCLUSION CHROMATOGRAPHY
##DATA CLASS=XYPOINTS
##ORIGIN=
##OWNER=
##XUNITS=MILLILITERS
##YUNITS=ARBITRARY UNITS
##LABEL=Vial  71: CBN_38 - 1
##COMMENTS=Z:\Cara\CBN_38.TXT
##DETEC1=I1: RID 1, RI Signal
##DETEC2=I1: IsoPump 1, Pressure
##COL1=PLgel Precolumn
##COL2=PLgel 5祄 Mixed-C
##COL3=PLgel 5祄 Mixed-C
##IN_VOL=100.000
##ELUENT=DMAc 0.79g/2.5L LiBr
##FLOW=0.500
##TEMPERATURE=50.000
##DATE=17/01/22
##TIME=17:32:42
##NO_DEC=1
##SOFTWARE=WINGPC
##VERSION=8#1
##OPERATOR=itcp-akt
##FIRSTX=9.48933E+0
##LASTX=1.77973E+1
##MINX=9.48933
##MAXX=17.7973
##MINY=0.0
##MAXY=5.65507
##NPOINTS=1000
##FIRSTY=0.00000E+0
##XUNITS=MILLILITERS
##YUNITS=ARBITRARY UNITS
##XYPOINTS=(XY..XY)
9.48933E+0, 0.00000E+0
9.49765E+0, 4.84541E-5
9.50596E+0, 0.00000E+0
9.51428E+0, 0.00000E+0
9.52259E+0, 0.00000E+0
9.53091E+0, 0.00000E+0
9.53923E+0, 0.00000E+0
9.54754E+0, 0.00000E+0
9.55586E+0, 0.00000E+0
9.56418E+0, 0.00000E+0
9.57249E+0, 0.00000E+0
9.58081E+0, 0.00000E+0
9.58912E+0, 0.00000E+0
9.59744E+0, 0.00000E+0
9.60576E+0, 0.00000E+0
9.61407E+0, 0.00000E+0
9.62239E+0, 0.00000E+0
9.63071E+0, 0.00000E+0
9.63902E+0, 0.00000E+0
9.64734E+0, 0.00000E+0
9.65565E+0, 0.00000E+0
9.66397E+0, 0.00000E+0
9.67229E+0, 0.00000E+0
9.68060E+0, 0.00000E+0
9.68892E+0, 0.00000E+0
9.69724E+0, 2.39197E-4
9.70555E+0, 1.16764E-3
9.71387E+0, 2.53361E-3
9.72218E+0, 3.97087E-3
9.73050E+0, 5.53389E-3
9.73882E+0, 7.13543E-3
9.74713E+0, 8.78750E-3
9.75545E+0, 1.05823E-2
9.76377E+0, 1.24820E-2
9.77208E+0, 1.44884E-2
9.78040E+0, 1.66924E-2
9.78871E+0, 1.89526E-2
9.79703E+0, 2.16218E-2
9.80535E+0, 2.46025E-2
9.81366E+0, 2.81201E-2
9.82198E+0, 3.21237E-2
9.83030E+0, 3.61980E-2
9.83861E+0, 4.11596E-2
9.84693E+0, 4.59765E-2
9.85524E+0, 5.13943E-2
9.86356E+0, 5.74167E-2
9.87188E+0, 6.38556E-2
9.88019E+0, 7.13557E-2
9.88851E+0, 7.86420E-2
9.89683E+0, 8.71247E-2
9.90514E+0, 9.49638E-2
9.91346E+0, 1.02645E-1
9.92177E+0, 1.11139E-1
9.93009E+0, 1.19644E-1
9.93841E+0, 1.29658E-1
9.94672E+0, 1.39105E-1
9.95504E+0, 1.49926E-1
9.96336E+0, 1.61306E-1
9.97167E+0, 1.71855E-1
9.97999E+0, 1.83372E-1
9.98830E+0, 1.94251E-1
9.99662E+0, 2.06720E-1
1.00049E+1, 2.18378E-1
1.00133E+1, 2.31255E-1
1.00216E+1, 2.45897E-1
1.00299E+1, 2.58194E-1
1.00382E+1, 2.72022E-1
1.00465E+1, 2.84722E-1
1.00548E+1, 2.99126E-1
1.00632E+1, 3.13487E-1
1.00715E+1, 3.27850E-1
1.00798E+1, 3.45333E-1
1.00881E+1, 3.60170E-1
1.00964E+1, 3.76796E-1
1.01047E+1, 3.92414E-1
1.01130E+1, 4.08918E-1
1.01214E+1, 4.26460E-1
1.01297E+1, 4.41886E-1
1.01380E+1, 4.59981E-1
1.01463E+1, 4.75438E-1
1.01546E+1, 4.95157E-1
1.01629E+1, 5.12858E-1
1.01713E+1, 5.29643E-1
1.01796E+1, 5.48539E-1
1.01879E+1, 5.65100E-1
1.01962E+1, 5.84766E-1
1.02045E+1, 6.01812E-1
1.02128E+1, 6.22630E-1
1.02212E+1, 6.42502E-1
1.02295E+1, 6.59756E-1
1.02378E+1, 6.79999E-1
1.02461E+1, 6.97266E-1
1.02544E+1, 7.17600E-1
1.02627E+1, 7.35632E-1
1.02711E+1, 7.55266E-1
1.02794E+1, 7.76952E-1
1.02877E+1, 7.95849E-1
1.02960E+1, 8.17011E-1
1.03043E+1, 8.35166E-1
1.03126E+1, 8.55686E-1
1.03210E+1, 8.75507E-1
1.03293E+1, 8.95022E-1
1.03376E+1, 9.14875E-1
1.03459E+1, 9.31498E-1
1.03542E+1, 9.50693E-1
1.03625E+1, 9.67953E-1
1.03709E+1, 9.87594E-1
1.03792E+1, 1.00924E+0
1.03875E+1, 1.02937E+0
1.03958E+1, 1.05082E+0
1.04041E+1, 1.06882E+0
1.04124E+1, 1.08944E+0
1.04207E+1, 1.10787E+0
1.04291E+1, 1.12727E+0
1.04374E+1, 1.14904E+0
1.04457E+1, 1.16628E+0
1.04540E+1, 1.19078E+0
1.04623E+1, 1.21026E+0
1.04706E+1, 1.23178E+0
1.04790E+1, 1.25334E+0
1.04873E+1, 1.27316E+0
1.04956E+1, 1.29702E+0
1.05039E+1, 1.31509E+0
1.05122E+1, 1.34049E+0
1.05205E+1, 1.36109E+0
1.05289E+1, 1.38265E+0
1.05372E+1, 1.40565E+0
1.05455E+1, 1.42416E+0
1.05538E+1, 1.44925E+0
1.05621E+1, 1.46887E+0
1.05704E+1, 1.49132E+0
1.05788E+1, 1.51338E+0
1.05871E+1, 1.53472E+0
1.05954E+1, 1.55978E+0
1.06037E+1, 1.57884E+0
1.06120E+1, 1.60442E+0
1.06203E+1, 1.62421E+0
1.06287E+1, 1.65107E+0
1.06370E+1, 1.67691E+0
1.06453E+1, 1.69970E+0
1.06536E+1, 1.72870E+0
1.06619E+1, 1.75077E+0
1.06702E+1, 1.77986E+0
1.06786E+1, 1.80361E+0
1.06869E+1, 1.83349E+0
1.06952E+1, 1.86490E+0
1.07035E+1, 1.89005E+0
1.07118E+1, 1.92328E+0
1.07201E+1, 1.94952E+0
1.07284E+1, 1.98318E+0
1.07368E+1, 2.01277E+0
1.07451E+1, 2.04376E+0
1.07534E+1, 2.08007E+0
1.07617E+1, 2.10921E+0
1.07700E+1, 2.14439E+0
1.07783E+1, 2.17365E+0
1.07867E+1, 2.20854E+0
1.07950E+1, 2.24304E+0
1.08033E+1, 2.27598E+0
1.08116E+1, 2.32183E+0
1.08199E+1, 2.35440E+0
1.08282E+1, 2.39542E+0
1.08366E+1, 2.43128E+0
1.08449E+1, 2.46877E+0
1.08532E+1, 2.51141E+0
1.08615E+1, 2.54368E+0
1.08698E+1, 2.59014E+0
1.08781E+1, 2.62148E+0
1.08865E+1, 2.67004E+0
1.08948E+1, 2.71058E+0
1.09031E+1, 2.74850E+0
1.09114E+1, 2.79763E+0
1.09197E+1, 2.82993E+0
1.09280E+1, 2.87855E+0
1.09364E+1, 2.91167E+0
1.09447E+1, 2.95915E+0
1.09530E+1, 3.00384E+0
1.09613E+1, 3.03997E+0
1.09696E+1, 3.09027E+0
1.09779E+1, 3.12440E+0
1.09863E+1, 3.17324E+0
1.09946E+1, 3.20896E+0
1.10029E+1, 3.25499E+0
1.10112E+1, 3.30303E+0
1.10195E+1, 3.33763E+0
1.10278E+1, 3.38670E+0
1.10362E+1, 3.42064E+0
1.10445E+1, 3.46599E+0
1.10528E+1, 3.50155E+0
1.10611E+1, 3.54133E+0
1.10694E+1, 3.58456E+0
1.10777E+1, 3.61600E+0
1.10860E+1, 3.65958E+0
1.10944E+1, 3.69268E+0
1.11027E+1, 3.73314E+0
1.11110E+1, 3.76984E+0
1.11193E+1, 3.80285E+0
1.11276E+1, 3.84929E+0
1.11359E+1, 3.88113E+0
1.11443E+1, 3.92106E+0
1.11526E+1, 3.95385E+0
1.11609E+1, 3.98811E+0
1.11692E+1, 4.02518E+0
1.11775E+1, 4.05137E+0
1.11858E+1, 4.09245E+0
1.11942E+1, 4.11924E+0
1.12025E+1, 4.15218E+0
1.12108E+1, 4.17946E+0
1.12191E+1, 4.20629E+0
1.12274E+1, 4.23908E+0
1.12357E+1, 4.26368E+0
1.12441E+1, 4.29453E+0
1.12524E+1, 4.31827E+0
1.12607E+1, 4.34652E+0
1.12690E+1, 4.37316E+0
1.12773E+1, 4.39524E+0
1.12856E+1, 4.42828E+0
1.12940E+1, 4.45026E+0
1.13023E+1, 4.47875E+0
1.13106E+1, 4.50278E+0
1.13189E+1, 4.52711E+0
1.13272E+1, 4.55511E+0
1.13355E+1, 4.57405E+0
1.13439E+1, 4.60340E+0
1.13522E+1, 4.62306E+0
1.13605E+1, 4.64629E+0
1.13688E+1, 4.66735E+0
1.13771E+1, 4.68576E+0
1.13854E+1, 4.71101E+0
1.13937E+1, 4.72532E+0
1.14021E+1, 4.75148E+0
1.14104E+1, 4.76972E+0
1.14187E+1, 4.78995E+0
1.14270E+1, 4.81028E+0
1.14353E+1, 4.82602E+0
1.14436E+1, 4.84987E+0
1.14520E+1, 4.86259E+0
1.14603E+1, 4.88582E+0
1.14686E+1, 4.90288E+0
1.14769E+1, 4.91979E+0
1.14852E+1, 4.94030E+0
1.14935E+1, 4.95375E+0
1.15019E+1, 4.97469E+0
1.15102E+1, 4.98725E+0
1.15185E+1, 5.00650E+0
1.15268E+1, 5.02099E+0
1.15351E+1, 5.03782E+0
1.15434E+1, 5.05714E+0
1.15518E+1, 5.06953E+0
1.15601E+1, 5.08834E+0
1.15684E+1, 5.10105E+0
1.15767E+1, 5.11784E+0
1.15850E+1, 5.13248E+0
1.15933E+1, 5.14738E+0
1.16017E+1, 5.16523E+0
1.16100E+1, 5.17734E+0
1.16183E+1, 5.19455E+0
1.16266E+1, 5.20742E+0
1.16349E+1, 5.22182E+0
1.16432E+1, 5.23698E+0
1.16516E+1, 5.24945E+0
1.16599E+1, 5.26518E+0
1.16682E+1, 5.27615E+0
1.16765E+1, 5.29089E+0
1.16848E+1, 5.30360E+0
1.16931E+1, 5.31547E+0
1.17014E+1, 5.33135E+0
1.17098E+1, 5.34034E+0
1.17181E+1, 5.35623E+0
1.17264E+1, 5.36497E+0
1.17347E+1, 5.37873E+0
1.17430E+1, 5.39085E+0
1.17513E+1, 5.39973E+0
1.17597E+1, 5.41334E+0
1.17680E+1, 5.42051E+0
1.17763E+1, 5.43338E+0
1.17846E+1, 5.44316E+0
1.17929E+1, 5.45278E+0
1.18012E+1, 5.46447E+0
1.18096E+1, 5.47237E+0
1.18179E+1, 5.48449E+0
1.18262E+1, 5.49182E+0
1.18345E+1, 5.50275E+0
1.18428E+1, 5.51082E+0
1.18511E+1, 5.51987E+0
1.18595E+1, 5.52983E+0
1.18678E+1, 5.53641E+0
1.18761E+1, 5.54478E+0
1.18844E+1, 5.55063E+0
1.18927E+1, 5.55737E+0
1.19010E+1, 5.56359E+0
1.19094E+1, 5.56907E+0
1.19177E+1, 5.57671E+0
1.19260E+1, 5.58229E+0
1.19343E+1, 5.58913E+0
1.19426E+1, 5.59476E+0
1.19509E+1, 5.60037E+0
1.19593E+1, 5.60610E+0
1.19676E+1, 5.61029E+0
1.19759E+1, 5.61623E+0
1.19842E+1, 5.62031E+0
1.19925E+1, 5.62488E+0
1.20008E+1, 5.62865E+0
1.20092E+1, 5.63204E+0
1.20175E+1, 5.63528E+0
1.20258E+1, 5.63771E+0
1.20341E+1, 5.64050E+0
1.20424E+1, 5.64302E+0
1.20507E+1, 5.64575E+0
1.20590E+1, 5.64839E+0
1.20674E+1, 5.65072E+0
1.20757E+1, 5.65267E+0
1.20840E+1, 5.65417E+0
1.20923E+1, 5.65479E+0
1.21006E+1, 5.65507E+0
1.21089E+1, 5.65504E+0
1.21173E+1, 5.65457E+0
1.21256E+1, 5.65478E+0
1.21339E+1, 5.65388E+0
1.21422E+1, 5.65391E+0
1.21505E+1, 5.65226E+0
1.21588E+1, 5.65059E+0
1.21672E+1, 5.64908E+0
1.21755E+1, 5.64589E+0
1.21838E+1, 5.64445E+0
1.21921E+1, 5.64094E+0
1.22004E+1, 5.63852E+0
1.22087E+1, 5.63559E+0
1.22171E+1, 5.63192E+0
1.22254E+1, 5.62915E+0
1.22337E+1, 5.62365E+0
1.22420E+1, 5.62106E+0
1.22503E+1, 5.61559E+0
1.22586E+1, 5.61131E+0
1.22670E+1, 5.60707E+0
1.22753E+1, 5.60069E+0
1.22836E+1, 5.59627E+0
1.22919E+1, 5.58833E+0
1.23002E+1, 5.58347E+0
1.23085E+1, 5.57546E+0
1.23169E+1, 5.56937E+0
1.23252E+1, 5.56260E+0
1.23335E+1, 5.55438E+0
1.23418E+1, 5.54754E+0
1.23501E+1, 5.53844E+0
1.23584E+1, 5.53201E+0
1.23667E+1, 5.52354E+0
1.23751E+1, 5.51556E+0
1.23834E+1, 5.50861E+0
1.23917E+1, 5.49804E+0
1.24000E+1, 5.49033E+0
1.24083E+1, 5.48012E+0
1.24166E+1, 5.47180E+0
1.24250E+1, 5.46228E+0
1.24333E+1, 5.45157E+0
1.24416E+1, 5.44378E+0
1.24499E+1, 5.43024E+0
1.24582E+1, 5.42083E+0
1.24665E+1, 5.40929E+0
1.24749E+1, 5.39871E+0
1.24832E+1, 5.38850E+0
1.24915E+1, 5.37518E+0
1.24998E+1, 5.36634E+0
1.25081E+1, 5.35144E+0
1.25164E+1, 5.34035E+0
1.25248E+1, 5.32783E+0
1.25331E+1, 5.31535E+0
1.25414E+1, 5.30486E+0
1.25497E+1, 5.28967E+0
1.25580E+1, 5.28076E+0
1.25663E+1, 5.26556E+0
1.25747E+1, 5.25322E+0
1.25830E+1, 5.24098E+0
1.25913E+1, 5.22662E+0
1.25996E+1, 5.21611E+0
1.26079E+1, 5.19904E+0
1.26162E+1, 5.18856E+0
1.26246E+1, 5.17193E+0
1.26329E+1, 5.15711E+0
1.26412E+1, 5.14398E+0
1.26495E+1, 5.12726E+0
1.26578E+1, 5.11572E+0
1.26661E+1, 5.09772E+0
1.26745E+1, 5.08541E+0
1.26828E+1, 5.06873E+0
1.26911E+1, 5.05183E+0
1.26994E+1, 5.03880E+0
1.27077E+1, 5.02045E+0
1.27160E+1, 5.00779E+0
1.27243E+1, 4.98991E+0
1.27327E+1, 4.97644E+0
1.27410E+1, 4.96014E+0
1.27493E+1, 4.94118E+0
1.27576E+1, 4.92704E+0
1.27659E+1, 4.90770E+0
1.27742E+1, 4.89291E+0
1.27826E+1, 4.87423E+0
1.27909E+1, 4.85787E+0
1.27992E+1, 4.84100E+0
1.28075E+1, 4.82188E+0
1.28158E+1, 4.80470E+0
1.28241E+1, 4.78373E+0
1.28325E+1, 4.76725E+0
1.28408E+1, 4.74801E+0
1.28491E+1, 4.72933E+0
1.28574E+1, 4.71282E+0
1.28657E+1, 4.69168E+0
1.28740E+1, 4.67428E+0
1.28824E+1, 4.65458E+0
1.28907E+1, 4.63756E+0
1.28990E+1, 4.61961E+0
1.29073E+1, 4.60049E+0
1.29156E+1, 4.58541E+0
1.29239E+1, 4.56364E+0
1.29323E+1, 4.54632E+0
1.29406E+1, 4.52754E+0
1.29489E+1, 4.50905E+0
1.29572E+1, 4.49137E+0
1.29655E+1, 4.46936E+0
1.29738E+1, 4.45247E+0
1.29822E+1, 4.42923E+0
1.29905E+1, 4.40892E+0
1.29988E+1, 4.38862E+0
1.30071E+1, 4.36703E+0
1.30154E+1, 4.34845E+0
1.30237E+1, 4.32319E+0
1.30320E+1, 4.30444E+0
1.30404E+1, 4.28016E+0
1.30487E+1, 4.25997E+0
1.30570E+1, 4.23779E+0
1.30653E+1, 4.21218E+0
1.30736E+1, 4.19262E+0
1.30819E+1, 4.16817E+0
1.30903E+1, 4.14829E+0
1.30986E+1, 4.12513E+0
1.31069E+1, 4.10418E+0
1.31152E+1, 4.08242E+0
1.31235E+1, 4.05541E+0
1.31318E+1, 4.03460E+0
1.31402E+1, 4.01074E+0
1.31485E+1, 3.99102E+0
1.31568E+1, 3.97014E+0
1.31651E+1, 3.94959E+0
1.31734E+1, 3.92916E+0
1.31817E+1, 3.90352E+0
1.31901E+1, 3.88228E+0
1.31984E+1, 3.85738E+0
1.32067E+1, 3.83386E+0
1.32150E+1, 3.80998E+0
1.32233E+1, 3.78448E+0
1.32316E+1, 3.76032E+0
1.32400E+1, 3.73322E+0
1.32483E+1, 3.71077E+0
1.32566E+1, 3.68668E+0
1.32649E+1, 3.66343E+0
1.32732E+1, 3.64132E+0
1.32815E+1, 3.61606E+0
1.32899E+1, 3.59235E+0
1.32982E+1, 3.56609E+0
1.33065E+1, 3.54310E+0
1.33148E+1, 3.51888E+0
1.33231E+1, 3.49427E+0
1.33314E+1, 3.47280E+0
1.33397E+1, 3.44642E+0
1.33481E+1, 3.42584E+0
1.33564E+1, 3.40182E+0
1.33647E+1, 3.37796E+0
1.33730E+1, 3.35653E+0
1.33813E+1, 3.33207E+0
1.33896E+1, 3.31101E+0
1.33980E+1, 3.28547E+0
1.34063E+1, 3.26365E+0
1.34146E+1, 3.24000E+0
1.34229E+1, 3.21506E+0
1.34312E+1, 3.19411E+0
1.34395E+1, 3.16963E+0
1.34479E+1, 3.14899E+0
1.34562E+1, 3.12640E+0
1.34645E+1, 3.10597E+0
1.34728E+1, 3.08521E+0
1.34811E+1, 3.06411E+0
1.34894E+1, 3.04376E+0
1.34978E+1, 3.01925E+0
1.35061E+1, 2.99873E+0
1.35144E+1, 2.97706E+0
1.35227E+1, 2.95594E+0
1.35310E+1, 2.93515E+0
1.35393E+1, 2.91295E+0
1.35477E+1, 2.89206E+0
1.35560E+1, 2.86819E+0
1.35643E+1, 2.84731E+0
1.35726E+1, 2.82583E+0
1.35809E+1, 2.80367E+0
1.35892E+1, 2.78344E+0
1.35976E+1, 2.76080E+0
1.36059E+1, 2.74182E+0
1.36142E+1, 2.71983E+0
1.36225E+1, 2.69778E+0
1.36308E+1, 2.67772E+0
1.36391E+1, 2.65558E+0
1.36475E+1, 2.63539E+0
1.36558E+1, 2.61071E+0
1.36641E+1, 2.58863E+0
1.36724E+1, 2.56586E+0
1.36807E+1, 2.54362E+0
1.36890E+1, 2.52248E+0
1.36973E+1, 2.49683E+0
1.37057E+1, 2.47570E+0
1.37140E+1, 2.45193E+0
1.37223E+1, 2.42991E+0
1.37306E+1, 2.40858E+0
1.37389E+1, 2.38638E+0
1.37472E+1, 2.36587E+0
1.37556E+1, 2.34012E+0
1.37639E+1, 2.31851E+0
1.37722E+1, 2.29721E+0
1.37805E+1, 2.27609E+0
1.37888E+1, 2.25653E+0
1.37971E+1, 2.23542E+0
1.38055E+1, 2.21589E+0
1.38138E+1, 2.19309E+0
1.38221E+1, 2.17306E+0
1.38304E+1, 2.15346E+0
1.38387E+1, 2.13335E+0
1.38470E+1, 2.11534E+0
1.38554E+1, 2.09556E+0
1.38637E+1, 2.07839E+0
1.38720E+1, 2.05806E+0
1.38803E+1, 2.03729E+0
1.38886E+1, 2.01891E+0
1.38969E+1, 2.00008E+0
1.39053E+1, 1.98367E+0
1.39136E+1, 1.96529E+0
1.39219E+1, 1.94885E+0
1.39302E+1, 1.93119E+0
1.39385E+1, 1.91196E+0
1.39468E+1, 1.89604E+0
1.39552E+1, 1.87889E+0
1.39635E+1, 1.86423E+0
1.39718E+1, 1.84784E+0
1.39801E+1, 1.83284E+0
1.39884E+1, 1.81860E+0
1.39967E+1, 1.80164E+0
1.40050E+1, 1.78768E+0
1.40134E+1, 1.77209E+0
1.40217E+1, 1.75828E+0
1.40300E+1, 1.74328E+0
1.40383E+1, 1.72732E+0
1.40466E+1, 1.71444E+0
1.40549E+1, 1.70083E+0
1.40633E+1, 1.68927E+0
1.40716E+1, 1.67616E+0
1.40799E+1, 1.66386E+0
1.40882E+1, 1.65107E+0
1.40965E+1, 1.63685E+0
1.41048E+1, 1.62435E+0
1.41132E+1, 1.60801E+0
1.41215E+1, 1.59494E+0
1.41298E+1, 1.58050E+0
1.41381E+1, 1.56572E+0
1.41464E+1, 1.55239E+0
1.41547E+1, 1.53676E+0
1.41631E+1, 1.52389E+0
1.41714E+1, 1.50720E+0
1.41797E+1, 1.49368E+0
1.41880E+1, 1.48042E+0
1.41963E+1, 1.46624E+0
1.42046E+1, 1.45434E+0
1.42130E+1, 1.44051E+0
1.42213E+1, 1.42906E+0
1.42296E+1, 1.41429E+0
1.42379E+1, 1.40103E+0
1.42462E+1, 1.38927E+0
1.42545E+1, 1.37594E+0
1.42629E+1, 1.36465E+0
1.42712E+1, 1.35121E+0
1.42795E+1, 1.33978E+0
1.42878E+1, 1.32684E+0
1.42961E+1, 1.31326E+0
1.43044E+1, 1.30085E+0
1.43128E+1, 1.28766E+0
1.43211E+1, 1.27657E+0
1.43294E+1, 1.26392E+0
1.43377E+1, 1.25320E+0
1.43460E+1, 1.24227E+0
1.43543E+1, 1.22988E+0
1.43626E+1, 1.22022E+0
1.43710E+1, 1.20908E+0
1.43793E+1, 1.19943E+0
1.43876E+1, 1.18852E+0
1.43959E+1, 1.17794E+0
1.44042E+1, 1.16842E+0
1.44125E+1, 1.15743E+0
1.44209E+1, 1.14929E+0
1.44292E+1, 1.13798E+0
1.44375E+1, 1.12904E+0
1.44458E+1, 1.11949E+0
1.44541E+1, 1.10901E+0
1.44624E+1, 1.10062E+0
1.44708E+1, 1.08999E+0
1.44791E+1, 1.08161E+0
1.44874E+1, 1.06930E+0
1.44957E+1, 1.05870E+0
1.45040E+1, 1.04843E+0
1.45123E+1, 1.03632E+0
1.45207E+1, 1.02686E+0
1.45290E+1, 1.01482E+0
1.45373E+1, 1.00545E+0
1.45456E+1, 9.94242E-1
1.45539E+1, 9.83878E-1
1.45622E+1, 9.73144E-1
1.45706E+1, 9.61663E-1
1.45789E+1, 9.52355E-1
1.45872E+1, 9.40634E-1
1.45955E+1, 9.30972E-1
1.46038E+1, 9.20235E-1
1.46121E+1, 9.08517E-1
1.46205E+1, 8.98090E-1
1.46288E+1, 8.86192E-1
1.46371E+1, 8.76486E-1
1.46454E+1, 8.64675E-1
1.46537E+1, 8.54200E-1
1.46620E+1, 8.43623E-1
1.46703E+1, 8.31317E-1
1.46787E+1, 8.23298E-1
1.46870E+1, 8.10965E-1
1.46953E+1, 8.02460E-1
1.47036E+1, 7.93157E-1
1.47119E+1, 7.83825E-1
1.47202E+1, 7.75644E-1
1.47286E+1, 7.64683E-1
1.47369E+1, 7.57404E-1
1.47452E+1, 7.45927E-1
1.47535E+1, 7.37311E-1
1.47618E+1, 7.28520E-1
1.47701E+1, 7.18400E-1
1.47785E+1, 7.11076E-1
1.47868E+1, 7.01079E-1
1.47951E+1, 6.94192E-1
1.48034E+1, 6.84067E-1
1.48117E+1, 6.75403E-1
1.48200E+1, 6.67831E-1
1.48284E+1, 6.58565E-1
1.48367E+1, 6.52085E-1
1.48450E+1, 6.43006E-1
1.48533E+1, 6.36649E-1
1.48616E+1, 6.27685E-1
1.48699E+1, 6.19416E-1
1.48783E+1, 6.13351E-1
1.48866E+1, 6.05207E-1
1.48949E+1, 5.99730E-1
1.49032E+1, 5.92072E-1
1.49115E+1, 5.86511E-1
1.49198E+1, 5.79375E-1
1.49282E+1, 5.72445E-1
1.49365E+1, 5.67746E-1
1.49448E+1, 5.60991E-1
1.49531E+1, 5.56415E-1
1.49614E+1, 5.50073E-1
1.49697E+1, 5.45248E-1
1.49780E+1, 5.40583E-1
1.49864E+1, 5.35230E-1
1.49947E+1, 5.31659E-1
1.50030E+1, 5.27105E-1
1.50113E+1, 5.23696E-1
1.50196E+1, 5.19276E-1
1.50279E+1, 5.14937E-1
1.50363E+1, 5.10821E-1
1.50446E+1, 5.05849E-1
1.50529E+1, 5.02368E-1
1.50612E+1, 4.97429E-1
1.50695E+1, 4.93601E-1
1.50778E+1, 4.89336E-1
1.50862E+1, 4.84215E-1
1.50945E+1, 4.79861E-1
1.51028E+1, 4.74443E-1
1.51111E+1, 4.70539E-1
1.51194E+1, 4.65332E-1
1.51277E+1, 4.60601E-1
1.51361E+1, 4.56238E-1
1.51444E+1, 4.49948E-1
1.51527E+1, 4.46060E-1
1.51610E+1, 4.40570E-1
1.51693E+1, 4.36315E-1
1.51776E+1, 4.31169E-1
1.51860E+1, 4.25708E-1
1.51943E+1, 4.21509E-1
1.52026E+1, 4.14377E-1
1.52109E+1, 4.10704E-1
1.52192E+1, 4.03322E-1
1.52275E+1, 3.98267E-1
1.52359E+1, 3.93249E-1
1.52442E+1, 3.86911E-1
1.52525E+1, 3.82961E-1
1.52608E+1, 3.76109E-1
1.52691E+1, 3.72094E-1
1.52774E+1, 3.65467E-1
1.52858E+1, 3.60655E-1
1.52941E+1, 3.54573E-1
1.53024E+1, 3.47593E-1
1.53107E+1, 3.43380E-1
1.53190E+1, 3.36521E-1
1.53273E+1, 3.32112E-1
1.53356E+1, 3.25801E-1
1.53440E+1, 3.20418E-1
1.53523E+1, 3.14902E-1
1.53606E+1, 3.08683E-1
1.53689E+1, 3.04940E-1
1.53772E+1, 2.99095E-1
1.53855E+1, 2.94974E-1
1.53939E+1, 2.90075E-1
1.54022E+1, 2.84780E-1
1.54105E+1, 2.80309E-1
1.54188E+1, 2.74455E-1
1.54271E+1, 2.70786E-1
1.54354E+1, 2.65383E-1
1.54438E+1, 2.61308E-1
1.54521E+1, 2.57204E-1
1.54604E+1, 2.51294E-1
1.54687E+1, 2.47258E-1
1.54770E+1, 2.41261E-1
1.54853E+1, 2.37161E-1
1.54937E+1, 2.31918E-1
1.55020E+1, 2.27329E-1
1.55103E+1, 2.24108E-1
1.55186E+1, 2.18202E-1
1.55269E+1, 2.15074E-1
1.55352E+1, 2.10369E-1
1.55436E+1, 2.06730E-1
1.55519E+1, 2.03247E-1
1.55602E+1, 1.99043E-1
1.55685E+1, 1.96970E-1
1.55768E+1, 1.92642E-1
1.55851E+1, 1.90758E-1
1.55935E+1, 1.86300E-1
1.56018E+1, 1.82921E-1
1.56101E+1, 1.80575E-1
1.56184E+1, 1.77036E-1
1.56267E+1, 1.75977E-1
1.56350E+1, 1.73034E-1
1.56433E+1, 1.71785E-1
1.56517E+1, 1.68711E-1
1.56600E+1, 1.65565E-1
1.56683E+1, 1.63767E-1
1.56766E+1, 1.60314E-1
1.56849E+1, 1.58927E-1
1.56932E+1, 1.55974E-1
1.57016E+1, 1.54733E-1
1.57099E+1, 1.52648E-1
1.57182E+1, 1.50250E-1
1.57265E+1, 1.49347E-1
1.57348E+1, 1.46906E-1
1.57431E+1, 1.45963E-1
1.57515E+1, 1.43368E-1
1.57598E+1, 1.41612E-1
1.57681E+1, 1.39344E-1
1.57764E+1, 1.36713E-1
1.57847E+1, 1.35711E-1
1.57930E+1, 1.33379E-1
1.58014E+1, 1.32320E-1
1.58097E+1, 1.30606E-1
1.58180E+1, 1.29255E-1
1.58263E+1, 1.28524E-1
1.58346E+1, 1.26266E-1
1.58429E+1, 1.25262E-1
1.58513E+1, 1.22967E-1
1.58596E+1, 1.20966E-1
1.58679E+1, 1.18738E-1
1.58762E+1, 1.15978E-1
1.58845E+1, 1.15033E-1
1.58928E+1, 1.12517E-1
1.59012E+1, 1.11460E-1
1.59095E+1, 1.09582E-1
1.59178E+1, 1.07885E-1
1.59261E+1, 1.06549E-1
1.59344E+1, 1.04312E-1
1.59427E+1, 1.03965E-1
1.59511E+1, 1.02182E-1
1.59594E+1, 1.01268E-1
1.59677E+1, 9.99802E-2
1.59760E+1, 9.82323E-2
1.59843E+1, 9.72631E-2
1.59926E+1, 9.50651E-2
1.60009E+1, 9.44227E-2
1.60093E+1, 9.24455E-2
1.60176E+1, 9.17592E-2
1.60259E+1, 9.03798E-2
1.60342E+1, 8.86539E-2
1.60425E+1, 8.79943E-2
1.60508E+1, 8.59176E-2
1.60592E+1, 8.51070E-2
1.60675E+1, 8.30836E-2
1.60758E+1, 8.20440E-2
1.60841E+1, 8.08363E-2
1.60924E+1, 7.95328E-2
1.61007E+1, 7.93092E-2
1.61091E+1, 7.84544E-2
1.61174E+1, 7.83479E-2
1.61257E+1, 7.78338E-2
1.61340E+1, 7.70416E-2
1.61423E+1, 7.64135E-2
1.61506E+1, 7.40999E-2
1.61590E+1, 7.29363E-2
1.61673E+1, 7.10504E-2
1.61756E+1, 6.98972E-2
1.61839E+1, 6.88020E-2
1.61922E+1, 6.75295E-2
1.62005E+1, 6.72531E-2
1.62089E+1, 6.57002E-2
1.62172E+1, 6.51881E-2
1.62255E+1, 6.30621E-2
1.62338E+1, 6.13620E-2
1.62421E+1, 6.03097E-2
1.62504E+1, 5.85336E-2
1.62588E+1, 5.81572E-2
1.62671E+1, 5.66099E-2
1.62754E+1, 5.61710E-2
1.62837E+1, 5.46023E-2
1.62920E+1, 5.31791E-2
1.63003E+1, 5.24702E-2
1.63086E+1, 5.07879E-2
1.63170E+1, 5.05871E-2
1.63253E+1, 4.94373E-2
1.63336E+1, 4.87996E-2
1.63419E+1, 4.81731E-2
1.63502E+1, 4.69158E-2
1.63585E+1, 4.64216E-2
1.63669E+1, 4.48803E-2
1.63752E+1, 4.46475E-2
1.63835E+1, 4.37241E-2
1.63918E+1, 4.32155E-2
1.64001E+1, 4.30157E-2
1.64084E+1, 4.20196E-2
1.64168E+1, 4.17404E-2
1.64251E+1, 4.05034E-2
1.64334E+1, 4.02440E-2
1.64417E+1, 3.95262E-2
1.64500E+1, 3.92152E-2
1.64583E+1, 3.94929E-2
1.64667E+1, 3.93660E-2
1.64750E+1, 3.94463E-2
1.64833E+1, 3.85161E-2
1.64916E+1, 3.78396E-2
1.64999E+1, 3.67401E-2
1.65082E+1, 3.57628E-2
1.65166E+1, 3.50251E-2
1.65249E+1, 3.41208E-2
1.65332E+1, 3.39879E-2
1.65415E+1, 3.34940E-2
1.65498E+1, 3.33656E-2
1.65581E+1, 3.33962E-2
1.65665E+1, 3.35211E-2
1.65748E+1, 3.40049E-2
1.65831E+1, 3.40590E-2
1.65914E+1, 3.42353E-2
1.65997E+1, 3.38728E-2
1.66080E+1, 3.33199E-2
1.66163E+1, 3.29511E-2
1.66247E+1, 3.18999E-2
1.66330E+1, 3.15470E-2
1.66413E+1, 3.11107E-2
1.66496E+1, 3.10900E-2
1.66579E+1, 3.11020E-2
1.66662E+1, 3.08364E-2
1.66746E+1, 3.09594E-2
1.66829E+1, 3.03525E-2
1.66912E+1, 3.01379E-2
1.66995E+1, 2.96167E-2
1.67078E+1, 2.92882E-2
1.67161E+1, 2.91359E-2
1.67245E+1, 2.86304E-2
1.67328E+1, 2.86869E-2
1.67411E+1, 2.79272E-2
1.67494E+1, 2.77765E-2
1.67577E+1, 2.70724E-2
1.67660E+1, 2.65560E-2
1.67744E+1, 2.67071E-2
1.67827E+1, 2.67511E-2
1.67910E+1, 2.74024E-2
1.67993E+1, 2.77999E-2
1.68076E+1, 2.83635E-2
1.68159E+1, 2.86126E-2
1.68243E+1, 2.86998E-2
1.68326E+1, 2.91738E-2
1.68409E+1, 2.94060E-2
1.68492E+1, 3.00130E-2
1.68575E+1, 3.03606E-2
1.68658E+1, 3.07139E-2
1.68742E+1, 3.11857E-2
1.68825E+1, 3.12583E-2
1.68908E+1, 3.16330E-2
1.68991E+1, 3.15011E-2
1.69074E+1, 3.15931E-2
1.69157E+1, 3.12569E-2
1.69241E+1, 3.11446E-2
1.69324E+1, 3.11705E-2
1.69407E+1, 3.11666E-2
1.69490E+1, 3.15887E-2
1.69573E+1, 3.16091E-2
1.69656E+1, 3.15786E-2
1.69739E+1, 3.12195E-2
1.69823E+1, 3.06823E-2
1.69906E+1, 3.02529E-2
1.69989E+1, 2.95259E-2
1.70072E+1, 2.92287E-2
1.70155E+1, 2.86050E-2
1.70238E+1, 2.79982E-2
1.70322E+1, 2.74543E-2
1.70405E+1, 2.64262E-2
1.70488E+1, 2.59246E-2
1.70571E+1, 2.45343E-2
1.70654E+1, 2.34688E-2
1.70737E+1, 2.25004E-2
1.70821E+1, 2.16381E-2
1.70904E+1, 2.11786E-2
1.70987E+1, 2.01334E-2
1.71070E+1, 1.94781E-2
1.71153E+1, 1.87726E-2
1.71236E+1, 1.83677E-2
1.71320E+1, 1.80313E-2
1.71403E+1, 1.75692E-2
1.71486E+1, 1.74356E-2
1.71569E+1, 1.64844E-2
1.71652E+1, 1.59500E-2
1.71735E+1, 1.48637E-2
1.71819E+1, 1.38412E-2
1.71902E+1, 1.32632E-2
1.71985E+1, 1.24701E-2
1.72068E+1, 1.22063E-2
1.72151E+1, 1.14755E-2
1.72234E+1, 1.11425E-2
1.72318E+1, 1.06510E-2
1.72401E+1, 1.01313E-2
1.72484E+1, 1.00380E-2
1.72567E+1, 9.43330E-3
1.72650E+1, 9.06640E-3
1.72733E+1, 8.06737E-3
1.72816E+1, 7.19293E-3
1.72900E+1, 6.09808E-3
1.72983E+1, 4.71073E-3
1.73066E+1, 4.04779E-3
1.73149E+1, 3.33529E-3
1.73232E+1, 3.04716E-3
1.73315E+1, 2.83827E-3
1.73399E+1, 2.82770E-3
1.73482E+1, 2.94184E-3
1.73565E+1, 2.62424E-3
1.73648E+1, 2.19360E-3
1.73731E+1, 1.29684E-3
1.73814E+1, 6.34952E-4
1.73898E+1, 2.08617E-4
1.73981E+1, 0.00000E+0
1.74064E+1, 0.00000E+0
1.74147E+1, 0.00000E+0
1.74230E+1, 0.00000E+0
1.74313E+1, 0.00000E+0
1.74397E+1, 0.00000E+0
1.74480E+1, 0.00000E+0
1.74563E+1, 0.00000E+0
1.74646E+1, 0.00000E+0
1.74729E+1, 0.00000E+0
1.74812E+1, 0.00000E+0
1.74896E+1, 0.00000E+0
1.74979E+1, 0.00000E+0
1.75062E+1, 0.00000E+0
1.75145E+1, 0.00000E+0
1.75228E+1, 0.00000E+0
1.75311E+1, 0.00000E+0
1.75395E+1, 0.00000E+0
1.75478E+1, 0.00000E+0
1.75561E+1, 0.00000E+0
1.75644E+1, 0.00000E+0
1.75727E+1, 0.00000E+0
1.75810E+1, 0.00000E+0
1.75894E+1, 0.00000E+0
1.75977E+1, 0.00000E+0
1.76060E+1, 0.00000E+0
1.76143E+1, 0.00000E+0
1.76226E+1, 0.00000E+0
1.76309E+1, 0.00000E+0
1.76392E+1, 0.00000E+0
1.76476E+1, 0.00000E+0
1.76559E+1, 0.00000E+0
1.76642E+1, 0.00000E+0
1.76725E+1, 0.00000E+0
1.76808E+1, 0.00000E+0
1.76891E+1, 0.00000E+0
1.76975E+1, 0.00000E+0
1.77058E+1, 0.00000E+0
1.77141E+1, 0.00000E+0
1.77224E+1, 0.00000E+0
1.77307E+1, 0.00000E+0
1.77390E+1, 0.00000E+0
1.77474E+1, 0.00000E+0
1.77557E+1, 0.00000E+0
1.77640E+1, 0.00000E+0
1.77723E+1, 0.00000E+0
1.77806E+1, 0.00000E+0
1.77889E+1, 0.00000E+0
1.77973E+1, 0.00000E+0
##END=$$ End of the data block
