##TITLE=Spectrum
##JCAMP-DX=5.00 $$ chemotion-converter-app (1.7.0)
##DATA TYPE=CYCLIC VOLTAMMETRY
##DATA CLASS=XYPOINTS
##ORIGIN=
##OWNER=
##XUNITS=Voltage in V
##YUNITS=Current in A
##DATE=3.7.2020
##SCAN_RATE=0.0999998
##STEP_SIZE=0.002
##CYCLES=2
##SOFTWARE_VERSION=7.8.1
##SOFTWARE=Framework
##VOLTAGE_LIMIT_END=0.00000E+000
##SERIAL=IFC1010-23191
##FIRSTX=-9.98026E-001
##LASTX=-1.00004E+000
##MINX=-1.00004
##MAXX=1.00004
##MINY=-6.73789e-05
##MAXY=5.08079e-05
##NPOINTS=2000
##FIRSTY=-3.58206E-005
##XUNITS=Voltage in V
##YUNITS=Current in A
##XYPOINTS=(XY..XY)
-9.98026E-001, -3.58206E-005
-9.96036E-001, -3.55871E-005
-9.94040E-001, -3.54069E-005
-9.92032E-001, -3.52195E-005
-9.90034E-001, -3.50492E-005
-9.88048E-001, -3.48929E-005
-9.86032E-001, -3.47294E-005
-9.84046E-001, -3.45998E-005
-9.82043E-001, -3.44573E-005
-9.80038E-001, -3.43391E-005
-9.78045E-001, -3.42349E-005
-9.76045E-001, -3.41186E-005
-9.74033E-001, -3.40267E-005
-9.72036E-001, -3.39039E-005
-9.70048E-001, -3.38000E-005
-9.68056E-001, -3.36989E-005
-9.66054E-001, -3.36046E-005
-9.64050E-001, -3.35376E-005
-9.62063E-001, -3.34417E-005
-9.60030E-001, -3.33653E-005
-9.58041E-001, -3.32750E-005
-9.56055E-001, -3.31874E-005
-9.54056E-001, -3.31254E-005
-9.52047E-001, -3.30421E-005
-9.50056E-001, -3.29876E-005
-9.48041E-001, -3.29128E-005
-9.46044E-001, -3.28370E-005
-9.44054E-001, -3.27775E-005
-9.42047E-001, -3.27022E-005
-9.40048E-001, -3.26525E-005
-9.38060E-001, -3.25894E-005
-9.36066E-001, -3.25337E-005
-9.34035E-001, -3.24831E-005
-9.32055E-001, -3.24141E-005
-9.30038E-001, -3.23676E-005
-9.28041E-001, -3.23000E-005
-9.26060E-001, -3.22531E-005
-9.24060E-001, -3.22081E-005
-9.22045E-001, -3.21544E-005
-9.20045E-001, -3.21219E-005
-9.18057E-001, -3.20614E-005
-9.16051E-001, -3.20190E-005
-9.14047E-001, -3.19758E-005
-9.12059E-001, -3.19234E-005
-9.10028E-001, -3.18911E-005
-9.08030E-001, -3.18307E-005
-9.06031E-001, -3.17945E-005
-9.04049E-001, -3.17506E-005
-9.02048E-001, -3.17099E-005
-9.00062E-001, -3.16882E-005
-8.98063E-001, -3.16441E-005
-8.96051E-001, -3.16154E-005
-8.94047E-001, -3.15640E-005
-8.92052E-001, -3.15175E-005
-8.90038E-001, -3.14875E-005
-8.88044E-001, -3.14433E-005
-8.86069E-001, -3.14278E-005
-8.84044E-001, -3.13901E-005
-8.82049E-001, -3.13619E-005
-8.80052E-001, -3.13372E-005
-8.78045E-001, -3.12911E-005
-8.76014E-001, -3.12653E-005
-8.74020E-001, -3.12167E-005
-8.72012E-001, -3.11893E-005
-8.69997E-001, -3.11673E-005
-8.68007E-001, -3.11329E-005
-8.66018E-001, -3.11217E-005
-8.64023E-001, -3.10823E-005
-8.62017E-001, -3.10583E-005
-8.60023E-001, -3.10292E-005
-8.58008E-001, -3.09917E-005
-8.56019E-001, -3.09730E-005
-8.54009E-001, -3.09329E-005
-8.52004E-001, -3.09154E-005
-8.50031E-001, -3.08885E-005
-8.48040E-001, -3.08651E-005
-8.46017E-001, -3.08562E-005
-8.44025E-001, -3.08179E-005
-8.42037E-001, -3.07999E-005
-8.40029E-001, -3.07630E-005
-8.38037E-001, -3.07344E-005
-8.36049E-001, -3.07203E-005
-8.34041E-001, -3.06872E-005
-8.32030E-001, -3.06845E-005
-8.30032E-001, -3.06549E-005
-8.28029E-001, -3.06322E-005
-8.26036E-001, -3.06162E-005
-8.24033E-001, -3.05830E-005
-8.22040E-001, -3.05719E-005
-8.20037E-001, -3.05413E-005
-8.18051E-001, -3.05267E-005
-8.16067E-001, -3.05041E-005
-8.14053E-001, -3.04754E-005
-8.12068E-001, -3.04737E-005
-8.10055E-001, -3.04448E-005
-8.08071E-001, -3.04338E-005
-8.06052E-001, -3.04141E-005
-8.04075E-001, -3.03902E-005
-8.02078E-001, -3.03784E-005
-8.00083E-001, -3.03386E-005
-7.98083E-001, -3.03266E-005
-7.96074E-001, -3.03112E-005
-7.94073E-001, -3.02997E-005
-7.92078E-001, -3.02992E-005
-7.90070E-001, -3.02712E-005
-7.88066E-001, -3.02577E-005
-7.86076E-001, -3.02198E-005
-7.84082E-001, -3.01962E-005
-7.82062E-001, -3.01864E-005
-7.80058E-001, -3.01651E-005
-7.78065E-001, -3.01768E-005
-7.76066E-001, -3.01574E-005
-7.74071E-001, -3.01407E-005
-7.72079E-001, -3.01275E-005
-7.70073E-001, -3.00878E-005
-7.68055E-001, -3.00792E-005
-7.66073E-001, -3.00532E-005
-7.64057E-001, -3.00459E-005
-7.62072E-001, -3.00388E-005
-7.60069E-001, -3.00224E-005
-7.58074E-001, -3.00264E-005
-7.56051E-001, -3.00004E-005
-7.54067E-001, -2.99867E-005
-7.52068E-001, -2.99617E-005
-7.50063E-001, -2.99427E-005
-7.48069E-001, -2.99473E-005
-7.46083E-001, -2.99170E-005
-7.44078E-001, -2.99131E-005
-7.42063E-001, -2.99072E-005
-7.40076E-001, -2.98967E-005
-7.38086E-001, -2.98912E-005
-7.36095E-001, -2.98662E-005
-7.34081E-001, -2.98669E-005
-7.32089E-001, -2.98312E-005
-7.30060E-001, -2.97996E-005
-7.28080E-001, -2.97955E-005
-7.26087E-001, -2.97840E-005
-7.24085E-001, -2.98009E-005
-7.22093E-001, -2.97911E-005
-7.20090E-001, -2.97798E-005
-7.18090E-001, -2.97627E-005
-7.16022E-001, -2.97293E-005
-7.14031E-001, -2.97208E-005
-7.12029E-001, -2.96881E-005
-7.10036E-001, -2.96792E-005
-7.08037E-001, -2.96788E-005
-7.06031E-001, -2.96768E-005
-7.04016E-001, -2.96961E-005
-7.02022E-001, -2.96766E-005
-7.00020E-001, -2.96667E-005
-6.98026E-001, -2.96380E-005
-6.96029E-001, -2.96015E-005
-6.94027E-001, -2.95866E-005
-6.92018E-001, -2.95668E-005
-6.90020E-001, -2.95878E-005
-6.88033E-001, -2.95954E-005
-6.86033E-001, -2.95992E-005
-6.84034E-001, -2.95997E-005
-6.82035E-001, -2.95589E-005
-6.80049E-001, -2.95318E-005
-6.78023E-001, -2.94913E-005
-6.76024E-001, -2.94791E-005
-6.74044E-001, -2.94907E-005
-6.72042E-001, -2.94959E-005
-6.70051E-001, -2.95251E-005
-6.68036E-001, -2.95114E-005
-6.66024E-001, -2.94939E-005
-6.64035E-001, -2.94661E-005
-6.62050E-001, -2.94256E-005
-6.60041E-001, -2.94140E-005
-6.58045E-001, -2.93943E-005
-6.56040E-001, -2.94053E-005
-6.54070E-001, -2.94217E-005
-6.52030E-001, -2.94277E-005
-6.50033E-001, -2.94425E-005
-6.48040E-001, -2.94085E-005
-6.46048E-001, -2.93811E-005
-6.44048E-001, -2.93385E-005
-6.42042E-001, -2.93134E-005
-6.40047E-001, -2.93254E-005
-6.38056E-001, -2.93297E-005
-6.36052E-001, -2.93651E-005
-6.34062E-001, -2.93684E-005
-6.32055E-001, -2.93543E-005
-6.30056E-001, -2.93299E-005
-6.28030E-001, -2.92772E-005
-6.26042E-001, -2.92581E-005
-6.24055E-001, -2.92389E-005
-6.22053E-001, -2.92491E-005
-6.20059E-001, -2.92735E-005
-6.18065E-001, -2.92816E-005
-6.16061E-001, -2.92987E-005
-6.14071E-001, -2.92680E-005
-6.12070E-001, -2.92454E-005
-6.10082E-001, -2.92125E-005
-6.08081E-001, -2.91779E-005
-6.06077E-001, -2.91816E-005
-6.04082E-001, -2.91768E-005
-6.02061E-001, -2.92071E-005
-6.00066E-001, -2.92272E-005
-5.98080E-001, -2.92209E-005
-5.96076E-001, -2.92154E-005
-5.94076E-001, -2.91629E-005
-5.92081E-001, -2.91316E-005
-5.90085E-001, -2.91097E-005
-5.88074E-001, -2.91098E-005
-5.86089E-001, -2.91426E-005
-5.84097E-001, -2.91501E-005
-5.82101E-001, -2.91698E-005
-5.80086E-001, -2.91514E-005
-5.78097E-001, -2.91214E-005
-5.76090E-001, -2.90937E-005
-5.74079E-001, -2.90560E-005
-5.72097E-001, -2.90592E-005
-5.70090E-001, -2.90601E-005
-5.68097E-001, -2.90818E-005
-5.66094E-001, -2.91067E-005
-5.64077E-001, -2.91011E-005
-5.62080E-001, -2.90948E-005
-5.60093E-001, -2.90463E-005
-5.58093E-001, -2.90180E-005
-5.56041E-001, -2.89993E-005
-5.54052E-001, -2.89947E-005
-5.52058E-001, -2.90282E-005
-5.50024E-001, -2.90330E-005
-5.48042E-001, -2.90471E-005
-5.46036E-001, -2.90348E-005
-5.44044E-001, -2.90042E-005
-5.42051E-001, -2.89890E-005
-5.40040E-001, -2.89518E-005
-5.38024E-001, -2.89525E-005
-5.36033E-001, -2.89509E-005
-5.34048E-001, -2.89638E-005
-5.32042E-001, -2.89935E-005
-5.30035E-001, -2.89853E-005
-5.28050E-001, -2.89788E-005
-5.26066E-001, -2.89403E-005
-5.24047E-001, -2.89084E-005
-5.22049E-001, -2.89027E-005
-5.20043E-001, -2.88965E-005
-5.18064E-001, -2.89212E-005
-5.16063E-001, -2.89292E-005
-5.14052E-001, -2.89421E-005
-5.12052E-001, -2.89304E-005
-5.10051E-001, -2.88951E-005
-5.08065E-001, -2.88810E-005
-5.06050E-001, -2.88529E-005
-5.04043E-001, -2.88532E-005
-5.02055E-001, -2.88619E-005
-5.00024E-001, -2.88724E-005
-4.98036E-001, -2.89002E-005
-4.96053E-001, -2.88795E-005
-4.94045E-001, -2.88610E-005
-4.92027E-001, -2.88316E-005
-4.90046E-001, -2.88090E-005
-4.88031E-001, -2.88148E-005
-4.86029E-001, -2.88062E-005
-4.84034E-001, -2.88274E-005
-4.82033E-001, -2.88280E-005
-4.80041E-001, -2.88244E-005
-4.78052E-001, -2.88251E-005
-4.76059E-001, -2.87911E-005
-4.74052E-001, -2.87839E-005
-4.72042E-001, -2.87593E-005
-4.70057E-001, -2.87555E-005
-4.68057E-001, -2.87706E-005
-4.66075E-001, -2.87728E-005
-4.64072E-001, -2.87941E-005
-4.62063E-001, -2.87766E-005
-4.60050E-001, -2.87598E-005
-4.58065E-001, -2.87391E-005
-4.56062E-001, -2.87140E-005
-4.54068E-001, -2.87245E-005
-4.52062E-001, -2.87190E-005
-4.50077E-001, -2.87335E-005
-4.48051E-001, -2.87382E-005
-4.46060E-001, -2.87274E-005
-4.44055E-001, -2.87298E-005
-4.42056E-001, -2.87018E-005
-4.40058E-001, -2.86959E-005
-4.38072E-001, -2.86798E-005
-4.36040E-001, -2.86719E-005
-4.34058E-001, -2.86889E-005
-4.32073E-001, -2.86841E-005
-4.30054E-001, -2.87011E-005
-4.28060E-001, -2.86911E-005
-4.26073E-001, -2.86740E-005
-4.24080E-001, -2.86661E-005
-4.22064E-001, -2.86386E-005
-4.20073E-001, -2.86466E-005
-4.18066E-001, -2.86380E-005
-4.16062E-001, -2.86499E-005
-4.14082E-001, -2.86664E-005
-4.12095E-001, -2.86553E-005
-4.10076E-001, -2.86600E-005
-4.08090E-001, -2.86297E-005
-4.06096E-001, -2.86166E-005
-4.04086E-001, -2.86111E-005
-4.02098E-001, -2.86062E-005
-4.00105E-001, -2.86289E-005
-3.98097E-001, -2.86128E-005
-3.96087E-001, -2.86223E-005
-3.94032E-001, -2.86122E-005
-3.92047E-001, -2.86022E-005
-3.90053E-001, -2.86118E-005
-3.88071E-001, -2.85868E-005
-3.86060E-001, -2.85899E-005
-3.84047E-001, -2.85834E-005
-3.82054E-001, -2.85828E-005
-3.80044E-001, -2.85960E-005
-3.78052E-001, -2.85796E-005
-3.76050E-001, -2.85877E-005
-3.74062E-001, -2.85699E-005
-3.72034E-001, -2.85604E-005
-3.70041E-001, -2.85705E-005
-3.68046E-001, -2.85598E-005
-3.66056E-001, -2.85695E-005
-3.64042E-001, -2.85477E-005
-3.62062E-001, -2.85415E-005
-3.60033E-001, -2.85509E-005
-3.58039E-001, -2.85457E-005
-3.56042E-001, -2.85659E-005
-3.54047E-001, -2.85396E-005
-3.52037E-001, -2.85257E-005
-3.50062E-001, -2.85170E-005
-3.48051E-001, -2.85102E-005
-3.46038E-001, -2.85359E-005
-3.44047E-001, -2.85297E-005
-3.42054E-001, -2.85276E-005
-3.40061E-001, -2.85115E-005
-3.38057E-001, -2.84941E-005
-3.36064E-001, -2.85055E-005
-3.34057E-001, -2.84895E-005
-3.32050E-001, -2.85032E-005
-3.30058E-001, -2.84949E-005
-3.28072E-001, -2.84833E-005
-3.26071E-001, -2.84824E-005
-3.24072E-001, -2.84638E-005
-3.22060E-001, -2.84739E-005
-3.20050E-001, -2.84643E-005
-3.18054E-001, -2.84573E-005
-3.16070E-001, -2.84611E-005
-3.14056E-001, -2.84438E-005
-3.12069E-001, -2.84511E-005
-3.10061E-001, -2.84346E-005
-3.08054E-001, -2.84287E-005
-3.06027E-001, -2.84243E-005
-3.04050E-001, -2.84104E-005
-3.02056E-001, -2.84217E-005
-3.00049E-001, -2.84046E-005
-2.98051E-001, -2.84097E-005
-2.96045E-001, -2.84042E-005
-2.94055E-001, -2.83879E-005
-2.92050E-001, -2.83885E-005
-2.90053E-001, -2.83585E-005
-2.88052E-001, -2.83564E-005
-2.86063E-001, -2.83522E-005
-2.84044E-001, -2.83456E-005
-2.82043E-001, -2.83606E-005
-2.80043E-001, -2.83388E-005
-2.78040E-001, -2.83313E-005
-2.76057E-001, -2.83129E-005
-2.74057E-001, -2.82831E-005
-2.72068E-001, -2.82913E-005
-2.70070E-001, -2.82750E-005
-2.68051E-001, -2.82674E-005
-2.66050E-001, -2.82616E-005
-2.64062E-001, -2.82461E-005
-2.62061E-001, -2.82403E-005
-2.60069E-001, -2.82264E-005
-2.58073E-001, -2.82065E-005
-2.56052E-001, -2.81768E-005
-2.54054E-001, -2.81495E-005
-2.52064E-001, -2.81339E-005
-2.50062E-001, -2.81275E-005
-2.48065E-001, -2.81183E-005
-2.46074E-001, -2.81025E-005
-2.44086E-001, -2.80767E-005
-2.42057E-001, -2.80464E-005
-2.40063E-001, -2.80065E-005
-2.38066E-001, -2.79701E-005
-2.36071E-001, -2.79393E-005
-2.34026E-001, -2.79037E-005
-2.32014E-001, -2.78832E-005
-2.30014E-001, -2.78609E-005
-2.28012E-001, -2.78311E-005
-2.26034E-001, -2.77854E-005
-2.24027E-001, -2.77308E-005
-2.22026E-001, -2.76718E-005
-2.20043E-001, -2.76040E-005
-2.18019E-001, -2.75490E-005
-2.16023E-001, -2.74980E-005
-2.14026E-001, -2.74538E-005
-2.12036E-001, -2.74014E-005
-2.10028E-001, -2.73339E-005
-2.08024E-001, -2.72520E-005
-2.06041E-001, -2.71537E-005
-2.04038E-001, -2.70507E-005
-2.02043E-001, -2.69509E-005
-2.00056E-001, -2.68520E-005
-1.98051E-001, -2.67570E-005
-1.96059E-001, -2.66682E-005
-1.94056E-001, -2.65529E-005
-1.92051E-001, -2.64267E-005
-1.90057E-001, -2.62776E-005
-1.88054E-001, -2.61067E-005
-1.86051E-001, -2.59408E-005
-1.84068E-001, -2.57635E-005
-1.82064E-001, -2.55871E-005
-1.80054E-001, -2.54143E-005
-1.78048E-001, -2.52311E-005
-1.76052E-001, -2.50231E-005
-1.74057E-001, -2.47921E-005
-1.72051E-001, -2.45360E-005
-1.70068E-001, -2.42667E-005
-1.68049E-001, -2.39754E-005
-1.66039E-001, -2.36741E-005
-1.64048E-001, -2.33791E-005
-1.62052E-001, -2.30751E-005
-1.60058E-001, -2.27325E-005
-1.58069E-001, -2.23760E-005
-1.56078E-001, -2.19943E-005
-1.54028E-001, -2.15981E-005
-1.52039E-001, -2.11859E-005
-1.50056E-001, -2.07232E-005
-1.48062E-001, -2.02114E-005
-1.46060E-001, -1.97023E-005
-1.44053E-001, -1.92104E-005
-1.42069E-001, -1.86987E-005
-1.40060E-001, -1.81586E-005
-1.38053E-001, -1.75736E-005
-1.36067E-001, -1.69339E-005
-1.34067E-001, -1.62832E-005
-1.32070E-001, -1.56032E-005
-1.30063E-001, -1.48992E-005
-1.28057E-001, -1.41909E-005
-1.26055E-001, -1.34631E-005
-1.24064E-001, -1.26990E-005
-1.22059E-001, -1.19335E-005
-1.20082E-001, -1.11273E-005
-1.18071E-001, -1.03129E-005
-1.16085E-001, -9.43155E-006
-1.14064E-001, -8.50002E-006
-1.12062E-001, -7.59079E-006
-1.10067E-001, -6.68808E-006
-1.08077E-001, -5.78918E-006
-1.06086E-001, -4.89414E-006
-1.04088E-001, -3.97069E-006
-1.02061E-001, -2.98480E-006
-1.00073E-001, -1.98342E-006
-9.80641E-002, -9.78242E-007
-9.60664E-002, 1.94697E-009
-9.40161E-002, 1.03551E-006
-9.20827E-002, 1.91633E-006
-9.00554E-002, 2.84885E-006
-8.80694E-002, 3.79368E-006
-8.60626E-002, 4.74717E-006
-8.40866E-002, 5.67602E-006
-8.20835E-002, 6.55296E-006
-8.00958E-002, 7.41999E-006
-7.80748E-002, 8.31593E-006
-7.60725E-002, 9.16146E-006
-7.40268E-002, 1.00110E-005
-7.20183E-002, 1.07272E-005
-7.00156E-002, 1.14202E-005
-6.80372E-002, 1.20807E-005
-6.60228E-002, 1.26980E-005
-6.40222E-002, 1.32848E-005
-6.20233E-002, 1.38522E-005
-6.00369E-002, 1.43528E-005
-5.80279E-002, 1.47807E-005
-5.60407E-002, 1.51463E-005
-5.40392E-002, 1.54256E-005
-5.20278E-002, 1.56571E-005
-5.00330E-002, 1.58766E-005
-4.80287E-002, 1.60966E-005
-4.60368E-002, 1.62353E-005
-4.40233E-002, 1.63043E-005
-4.20461E-002, 1.63067E-005
-4.00371E-002, 1.62592E-005
-3.80286E-002, 1.61453E-005
-3.60339E-002, 1.60005E-005
-3.40366E-002, 1.58586E-005
-3.20389E-002, 1.56794E-005
-3.00450E-002, 1.54620E-005
-2.80536E-002, 1.52149E-005
-2.60321E-002, 1.49359E-005
-2.40436E-002, 1.46001E-005
-2.20401E-002, 1.42305E-005
-2.00566E-002, 1.38451E-005
-1.80397E-002, 1.34683E-005
-1.60504E-002, 1.31145E-005
-1.40477E-002, 1.27703E-005
-1.20354E-002, 1.24038E-005
-1.00323E-002, 1.19942E-005
-8.04801E-003, 1.15567E-005
-6.03532E-003, 1.11263E-005
-4.05849E-003, 1.07051E-005
-2.02828E-003, 1.02966E-005
-2.76856E-005, 9.88863E-006
1.94789E-003, 9.51222E-006
3.95516E-003, 9.14673E-006
5.94074E-003, 8.77853E-006
7.94551E-003, 8.38096E-006
9.93902E-003, 7.98085E-006
1.19617E-002, 7.57276E-006
1.39431E-002, 7.19119E-006
1.59529E-002, 6.83626E-006
1.79397E-002, 6.54031E-006
1.99399E-002, 6.22153E-006
2.19455E-002, 5.89845E-006
2.39419E-002, 5.56637E-006
2.59551E-002, 5.22071E-006
2.79448E-002, 4.89239E-006
2.99433E-002, 4.58867E-006
3.19402E-002, 4.29601E-006
3.39374E-002, 4.02938E-006
3.59272E-002, 3.76554E-006
3.79499E-002, 3.50020E-006
3.99396E-002, 3.24189E-006
4.19286E-002, 2.97142E-006
4.39321E-002, 2.70273E-006
4.59239E-002, 2.43505E-006
4.79449E-002, 2.19445E-006
4.99368E-002, 1.96388E-006
5.19391E-002, 1.74841E-006
5.39301E-002, 1.55132E-006
5.59261E-002, 1.33366E-006
5.79317E-002, 1.11153E-006
5.99231E-002, 8.86331E-007
6.19120E-002, 6.58328E-007
6.39401E-002, 4.60897E-007
6.59232E-002, 2.70309E-007
6.79409E-002, 8.75986E-008
6.99419E-002, -8.17313E-008
7.19242E-002, -2.56130E-007
7.39285E-002, -4.50721E-007
7.59604E-002, -5.84483E-007
7.79431E-002, -8.44938E-007
7.99474E-002, -9.91617E-007
8.19184E-002, -1.18044E-006
8.39365E-002, -1.30355E-006
8.59209E-002, -1.44265E-006
8.79728E-002, -1.61501E-006
8.99971E-002, -1.76338E-006
9.19760E-002, -1.87727E-006
9.39850E-002, -2.08293E-006
9.59743E-002, -2.19763E-006
9.79695E-002, -2.34612E-006
9.99838E-002, -2.51428E-006
1.01981E-001, -2.59270E-006
1.03984E-001, -2.75771E-006
1.05977E-001, -2.84967E-006
1.07977E-001, -2.93952E-006
1.09981E-001, -3.11728E-006
1.11984E-001, -3.24258E-006
1.13958E-001, -3.34372E-006
1.15988E-001, -3.49101E-006
1.17984E-001, -3.56140E-006
1.19984E-001, -3.67280E-006
1.21976E-001, -3.78335E-006
1.23972E-001, -3.84278E-006
1.25975E-001, -3.96735E-006
1.27993E-001, -4.07993E-006
1.29981E-001, -4.16581E-006
1.31973E-001, -4.28413E-006
1.33972E-001, -4.36754E-006
1.35978E-001, -4.44534E-006
1.37982E-001, -4.52244E-006
1.39962E-001, -4.59036E-006
1.41992E-001, -4.66933E-006
1.43977E-001, -4.76201E-006
1.45963E-001, -4.83774E-006
1.47969E-001, -4.92146E-006
1.49977E-001, -4.99457E-006
1.51989E-001, -5.06000E-006
1.53997E-001, -5.10760E-006
1.55974E-001, -5.16837E-006
1.57983E-001, -5.21850E-006
1.59980E-001, -5.27121E-006
1.61977E-001, -5.33827E-006
1.63970E-001, -5.38618E-006
1.66001E-001, -5.43015E-006
1.67975E-001, -5.47704E-006
1.69975E-001, -5.49447E-006
1.71976E-001, -5.52361E-006
1.73980E-001, -5.54562E-006
1.75970E-001, -5.55030E-006
1.77968E-001, -5.58081E-006
1.79976E-001, -5.59911E-006
1.81967E-001, -5.58422E-006
1.83968E-001, -5.59467E-006
1.85971E-001, -5.57901E-006
1.87955E-001, -5.54636E-006
1.89954E-001, -5.51751E-006
1.91973E-001, -5.46011E-006
1.93951E-001, -5.41719E-006
1.95949E-001, -5.37197E-006
1.97948E-001, -5.29547E-006
1.99954E-001, -5.22342E-006
2.01966E-001, -5.13594E-006
2.03939E-001, -5.01048E-006
2.05960E-001, -4.88797E-006
2.07947E-001, -4.74360E-006
2.09929E-001, -4.59851E-006
2.11943E-001, -4.44438E-006
2.13934E-001, -4.23491E-006
2.15928E-001, -4.00935E-006
2.17945E-001, -3.77950E-006
2.19942E-001, -3.54286E-006
2.21936E-001, -3.27821E-006
2.23948E-001, -2.97525E-006
2.25935E-001, -2.62601E-006
2.27944E-001, -2.23163E-006
2.29959E-001, -1.83858E-006
2.31950E-001, -1.44655E-006
2.33950E-001, -9.91605E-007
2.35929E-001, -5.61326E-007
2.37953E-001, -1.11359E-008
2.39942E-001, 6.08311E-007
2.41934E-001, 1.09428E-006
2.43935E-001, 1.80650E-006
2.45946E-001, 2.47825E-006
2.47978E-001, 3.19081E-006
2.49973E-001, 3.94151E-006
2.51960E-001, 4.72602E-006
2.53979E-001, 5.51773E-006
2.55975E-001, 6.38504E-006
2.57978E-001, 7.22650E-006
2.59966E-001, 8.08496E-006
2.61965E-001, 9.10801E-006
2.63973E-001, 1.01025E-005
2.65968E-001, 1.11019E-005
2.67946E-001, 1.21319E-005
2.69969E-001, 1.31244E-005
2.71964E-001, 1.41765E-005
2.73962E-001, 1.52746E-005
2.75969E-001, 1.63511E-005
2.77980E-001, 1.75299E-005
2.79978E-001, 1.86863E-005
2.81981E-001, 1.97937E-005
2.83974E-001, 2.09249E-005
2.85962E-001, 2.20339E-005
2.87959E-001, 2.31474E-005
2.89963E-001, 2.43909E-005
2.91962E-001, 2.55935E-005
2.93997E-001, 2.67652E-005
2.95968E-001, 2.79180E-005
2.97963E-001, 2.90358E-005
2.99957E-001, 3.01806E-005
3.01961E-001, 3.13728E-005
3.03947E-001, 3.25298E-005
3.05969E-001, 3.36606E-005
3.07972E-001, 3.47661E-005
3.09972E-001, 3.58049E-005
3.11959E-001, 3.68944E-005
3.13966E-001, 3.80218E-005
3.15954E-001, 3.90715E-005
3.17955E-001, 4.00938E-005
3.19986E-001, 4.10580E-005
3.21977E-001, 4.19558E-005
3.23981E-001, 4.28822E-005
3.25965E-001, 4.37814E-005
3.27968E-001, 4.46565E-005
3.29959E-001, 4.54718E-005
3.31959E-001, 4.61939E-005
3.33979E-001, 4.68818E-005
3.35975E-001, 4.75425E-005
3.37964E-001, 4.81079E-005
3.39958E-001, 4.86568E-005
3.41957E-001, 4.91595E-005
3.43953E-001, 4.95881E-005
3.45967E-001, 4.99676E-005
3.47964E-001, 5.02544E-005
3.49952E-001, 5.04758E-005
3.51964E-001, 5.06638E-005
3.53945E-001, 5.07554E-005
3.55957E-001, 5.07972E-005
3.57983E-001, 5.08079E-005
3.59966E-001, 5.07300E-005
3.61971E-001, 5.06002E-005
3.63963E-001, 5.04379E-005
3.65963E-001, 5.02044E-005
3.67975E-001, 4.99469E-005
3.69950E-001, 4.96193E-005
3.71987E-001, 4.92387E-005
3.73968E-001, 4.88575E-005
3.75979E-001, 4.84436E-005
3.77976E-001, 4.79958E-005
3.79967E-001, 4.75145E-005
3.81976E-001, 4.69873E-005
3.83987E-001, 4.64505E-005
3.85971E-001, 4.59302E-005
3.87959E-001, 4.53900E-005
3.89956E-001, 4.48471E-005
3.91949E-001, 4.42885E-005
3.93957E-001, 4.37156E-005
3.95940E-001, 4.31312E-005
3.97962E-001, 4.25681E-005
3.99957E-001, 4.20208E-005
4.01961E-001, 4.14697E-005
4.03951E-001, 4.09075E-005
4.05958E-001, 4.03440E-005
4.07998E-001, 3.98173E-005
4.10009E-001, 3.92737E-005
4.11991E-001, 3.87466E-005
4.13998E-001, 3.82332E-005
4.15998E-001, 3.77233E-005
4.17984E-001, 3.72099E-005
4.19977E-001, 3.67141E-005
4.22001E-001, 3.62349E-005
4.24001E-001, 3.57638E-005
4.25993E-001, 3.52975E-005
4.27971E-001, 3.48432E-005
4.29989E-001, 3.44009E-005
4.31977E-001, 3.39682E-005
4.33998E-001, 3.35524E-005
4.35992E-001, 3.31347E-005
4.37989E-001, 3.27260E-005
4.39980E-001, 3.23251E-005
4.41991E-001, 3.19352E-005
4.43971E-001, 3.15587E-005
4.45984E-001, 3.11962E-005
4.47998E-001, 3.08343E-005
4.49976E-001, 3.04856E-005
4.51973E-001, 3.01388E-005
4.53981E-001, 2.97991E-005
4.55972E-001, 2.94726E-005
4.57984E-001, 2.91467E-005
4.59986E-001, 2.88360E-005
4.61979E-001, 2.85298E-005
4.63985E-001, 2.82287E-005
4.65964E-001, 2.79392E-005
4.67974E-001, 2.76517E-005
4.69964E-001, 2.73688E-005
4.71969E-001, 2.70978E-005
4.73975E-001, 2.68287E-005
4.75976E-001, 2.65662E-005
4.77966E-001, 2.63119E-005
4.79978E-001, 2.60588E-005
4.81967E-001, 2.58165E-005
4.83986E-001, 2.55801E-005
4.86001E-001, 2.53456E-005
4.87998E-001, 2.51186E-005
4.89995E-001, 2.48920E-005
4.91980E-001, 2.46708E-005
4.93993E-001, 2.44567E-005
4.95984E-001, 2.42464E-005
4.97984E-001, 2.40415E-005
4.99986E-001, 2.38436E-005
5.01987E-001, 2.36504E-005
5.03970E-001, 2.34606E-005
5.05980E-001, 2.32731E-005
5.07963E-001, 2.30872E-005
5.09988E-001, 2.29047E-005
5.12001E-001, 2.27272E-005
5.14000E-001, 2.25589E-005
5.15999E-001, 2.23951E-005
5.17983E-001, 2.22370E-005
5.19981E-001, 2.20826E-005
5.21976E-001, 2.19199E-005
5.23971E-001, 2.17636E-005
5.25994E-001, 2.16056E-005
5.27991E-001, 2.14598E-005
5.29977E-001, 2.13212E-005
5.31994E-001, 2.11887E-005
5.33980E-001, 2.10543E-005
5.36002E-001, 2.09167E-005
5.37994E-001, 2.07901E-005
5.39990E-001, 2.06559E-005
5.41980E-001, 2.05296E-005
5.43984E-001, 2.04074E-005
5.45972E-001, 2.02791E-005
5.47973E-001, 2.01637E-005
5.49981E-001, 2.00562E-005
5.51980E-001, 1.99479E-005
5.53974E-001, 1.98441E-005
5.55971E-001, 1.97269E-005
5.57976E-001, 1.96100E-005
5.59964E-001, 1.95072E-005
5.61981E-001, 1.94021E-005
5.63984E-001, 1.93098E-005
5.65983E-001, 1.92258E-005
5.68019E-001, 1.91283E-005
5.70026E-001, 1.90304E-005
5.72011E-001, 1.89347E-005
5.74007E-001, 1.88365E-005
5.76037E-001, 1.87551E-005
5.78034E-001, 1.86713E-005
5.80026E-001, 1.85811E-005
5.82008E-001, 1.85014E-005
5.84014E-001, 1.84224E-005
5.86010E-001, 1.83408E-005
5.88006E-001, 1.82607E-005
5.90023E-001, 1.81853E-005
5.92017E-001, 1.81119E-005
5.93998E-001, 1.80363E-005
5.96016E-001, 1.79574E-005
5.98007E-001, 1.78883E-005
5.99996E-001, 1.78243E-005
6.02019E-001, 1.77599E-005
6.04020E-001, 1.76981E-005
6.06006E-001, 1.76308E-005
6.08012E-001, 1.75689E-005
6.10016E-001, 1.75035E-005
6.12016E-001, 1.74425E-005
6.14020E-001, 1.73851E-005
6.15996E-001, 1.73286E-005
6.17996E-001, 1.72774E-005
6.19981E-001, 1.72261E-005
6.21990E-001, 1.71765E-005
6.23981E-001, 1.71271E-005
6.25988E-001, 1.70764E-005
6.28004E-001, 1.70258E-005
6.30000E-001, 1.69826E-005
6.31991E-001, 1.69390E-005
6.33992E-001, 1.68972E-005
6.35978E-001, 1.68575E-005
6.38002E-001, 1.68225E-005
6.40000E-001, 1.67885E-005
6.41989E-001, 1.67536E-005
6.43990E-001, 1.67217E-005
6.45987E-001, 1.66880E-005
6.47981E-001, 1.66610E-005
6.49983E-001, 1.66339E-005
6.51980E-001, 1.66095E-005
6.53982E-001, 1.65859E-005
6.55991E-001, 1.65667E-005
6.57978E-001, 1.65471E-005
6.59980E-001, 1.65245E-005
6.61977E-001, 1.65040E-005
6.63995E-001, 1.64851E-005
6.65997E-001, 1.64746E-005
6.67993E-001, 1.64618E-005
6.69998E-001, 1.64516E-005
6.71994E-001, 1.64393E-005
6.73968E-001, 1.64262E-005
6.75971E-001, 1.64121E-005
6.77968E-001, 1.63968E-005
6.79991E-001, 1.63850E-005
6.81985E-001, 1.63810E-005
6.83973E-001, 1.63719E-005
6.85983E-001, 1.63607E-005
6.87971E-001, 1.63542E-005
6.89973E-001, 1.63461E-005
6.91973E-001, 1.63379E-005
6.93974E-001, 1.63265E-005
6.95973E-001, 1.63152E-005
6.97980E-001, 1.63115E-005
6.99961E-001, 1.63023E-005
7.01963E-001, 1.62962E-005
7.03986E-001, 1.62949E-005
7.05992E-001, 1.62864E-005
7.07967E-001, 1.62834E-005
7.09970E-001, 1.62713E-005
7.11971E-001, 1.62561E-005
7.13974E-001, 1.62501E-005
7.15983E-001, 1.62519E-005
7.17982E-001, 1.62506E-005
7.19983E-001, 1.62488E-005
7.21980E-001, 1.62394E-005
7.23983E-001, 1.62289E-005
7.25972E-001, 1.62230E-005
7.27983E-001, 1.62177E-005
7.30049E-001, 1.62215E-005
7.32038E-001, 1.62129E-005
7.34033E-001, 1.62020E-005
7.36038E-001, 1.61975E-005
7.38022E-001, 1.61930E-005
7.40032E-001, 1.61869E-005
7.42023E-001, 1.61793E-005
7.44044E-001, 1.61679E-005
7.46029E-001, 1.61574E-005
7.48019E-001, 1.61501E-005
7.50026E-001, 1.61421E-005
7.52013E-001, 1.61371E-005
7.54021E-001, 1.61295E-005
7.56032E-001, 1.61186E-005
7.58009E-001, 1.61040E-005
7.60023E-001, 1.60875E-005
7.62029E-001, 1.60711E-005
7.64005E-001, 1.60594E-005
7.65998E-001, 1.60547E-005
7.68022E-001, 1.60487E-005
7.70021E-001, 1.60338E-005
7.72035E-001, 1.60121E-005
7.74021E-001, 1.59856E-005
7.76013E-001, 1.59506E-005
7.78030E-001, 1.59406E-005
7.80017E-001, 1.59386E-005
7.82024E-001, 1.59210E-005
7.84030E-001, 1.59070E-005
7.86017E-001, 1.58761E-005
7.88018E-001, 1.58466E-005
7.90017E-001, 1.58198E-005
7.92008E-001, 1.57837E-005
7.94020E-001, 1.57608E-005
7.96015E-001, 1.57465E-005
7.98011E-001, 1.57177E-005
8.00029E-001, 1.56963E-005
8.01994E-001, 1.56654E-005
8.04024E-001, 1.56287E-005
8.06011E-001, 1.55936E-005
8.08035E-001, 1.55507E-005
8.10008E-001, 1.55149E-005
8.12008E-001, 1.54897E-005
8.14003E-001, 1.54623E-005
8.16015E-001, 1.54282E-005
8.18004E-001, 1.53912E-005
8.19993E-001, 1.53496E-005
8.21979E-001, 1.53104E-005
8.23977E-001, 1.52663E-005
8.25985E-001, 1.52224E-005
8.27968E-001, 1.51843E-005
8.29982E-001, 1.51490E-005
8.31993E-001, 1.51164E-005
8.33988E-001, 1.50799E-005
8.35977E-001, 1.50378E-005
8.37980E-001, 1.49876E-005
8.39980E-001, 1.49402E-005
8.41987E-001, 1.49004E-005
8.43989E-001, 1.48612E-005
8.45984E-001, 1.48240E-005
8.47995E-001, 1.47880E-005
8.49966E-001, 1.47504E-005
8.51975E-001, 1.47094E-005
8.53945E-001, 1.46720E-005
8.55967E-001, 1.46302E-005
8.57976E-001, 1.45962E-005
8.59959E-001, 1.45603E-005
8.61969E-001, 1.45260E-005
8.63976E-001, 1.44963E-005
8.65959E-001, 1.44687E-005
8.67981E-001, 1.44410E-005
8.69972E-001, 1.44092E-005
8.71976E-001, 1.43766E-005
8.73994E-001, 1.43484E-005
8.75975E-001, 1.43183E-005
8.77967E-001, 1.42910E-005
8.79969E-001, 1.42741E-005
8.81974E-001, 1.42660E-005
8.83987E-001, 1.42556E-005
8.85978E-001, 1.42312E-005
8.87977E-001, 1.42075E-005
8.90023E-001, 1.41872E-005
8.92014E-001, 1.41560E-005
8.94028E-001, 1.41461E-005
8.96036E-001, 1.41436E-005
8.98035E-001, 1.41288E-005
9.00023E-001, 1.41109E-005
9.02017E-001, 1.40856E-005
9.04013E-001, 1.40595E-005
9.06024E-001, 1.40327E-005
9.08012E-001, 1.40045E-005
9.10025E-001, 1.39811E-005
9.12028E-001, 1.39576E-005
9.14016E-001, 1.39237E-005
9.16019E-001, 1.38927E-005
9.18028E-001, 1.38604E-005
9.20040E-001, 1.38266E-005
9.22033E-001, 1.37870E-005
9.24040E-001, 1.37433E-005
9.26032E-001, 1.36964E-005
9.28019E-001, 1.36540E-005
9.30031E-001, 1.36175E-005
9.32033E-001, 1.35820E-005
9.34019E-001, 1.35397E-005
9.36042E-001, 1.34886E-005
9.38027E-001, 1.34347E-005
9.40028E-001, 1.33854E-005
9.42023E-001, 1.33374E-005
9.44027E-001, 1.32849E-005
9.46025E-001, 1.32456E-005
9.48035E-001, 1.32020E-005
9.50030E-001, 1.31546E-005
9.52026E-001, 1.31034E-005
9.54020E-001, 1.30538E-005
9.56016E-001, 1.30069E-005
9.58015E-001, 1.29722E-005
9.60016E-001, 1.29273E-005
9.62025E-001, 1.28801E-005
9.64035E-001, 1.28326E-005
9.66006E-001, 1.27960E-005
9.68015E-001, 1.27630E-005
9.70008E-001, 1.27236E-005
9.72025E-001, 1.26774E-005
9.74027E-001, 1.26439E-005
9.76032E-001, 1.25917E-005
9.78011E-001, 1.25583E-005
9.80012E-001, 1.25065E-005
9.82019E-001, 1.24928E-005
9.84001E-001, 1.24585E-005
9.86036E-001, 1.24117E-005
9.88021E-001, 1.23826E-005
9.90030E-001, 1.23458E-005
9.92023E-001, 1.22953E-005
9.94030E-001, 1.22707E-005
9.96008E-001, 1.22381E-005
9.98030E-001, 1.21994E-005
1.00004E+000, 1.21811E-005
9.98026E-001, 1.17290E-005
9.96017E-001, 1.14017E-005
9.94030E-001, 1.11212E-005
9.92018E-001, 1.08462E-005
9.90025E-001, 1.06273E-005
9.88033E-001, 1.04336E-005
9.86033E-001, 1.02304E-005
9.84005E-001, 1.00638E-005
9.82022E-001, 9.88238E-006
9.80019E-001, 9.71724E-006
9.78007E-001, 9.57254E-006
9.76019E-001, 9.41543E-006
9.74014E-001, 9.28965E-006
9.72022E-001, 9.17652E-006
9.69993E-001, 9.04875E-006
9.67997E-001, 8.93793E-006
9.65997E-001, 8.82180E-006
9.64015E-001, 8.71097E-006
9.62014E-001, 8.60941E-006
9.60018E-001, 8.50987E-006
9.58009E-001, 8.41406E-006
9.56004E-001, 8.32611E-006
9.54012E-001, 8.24116E-006
9.52009E-001, 8.16611E-006
9.50023E-001, 8.07963E-006
9.48033E-001, 7.98376E-006
9.46011E-001, 7.89510E-006
9.44012E-001, 7.82135E-006
9.42011E-001, 7.75338E-006
9.40029E-001, 7.68256E-006
9.38027E-001, 7.61984E-006
9.36039E-001, 7.55625E-006
9.34007E-001, 7.48575E-006
9.32019E-001, 7.42035E-006
9.30016E-001, 7.35814E-006
9.28010E-001, 7.27650E-006
9.26021E-001, 7.22840E-006
9.24033E-001, 7.14469E-006
9.22040E-001, 7.11737E-006
9.20027E-001, 7.06599E-006
9.18018E-001, 7.00438E-006
9.16022E-001, 6.94212E-006
9.14010E-001, 6.88874E-006
9.12025E-001, 6.81818E-006
9.10027E-001, 6.78055E-006
9.07990E-001, 6.72652E-006
9.06019E-001, 6.66260E-006
9.04016E-001, 6.63051E-006
9.02011E-001, 6.58260E-006
9.00019E-001, 6.52638E-006
8.98024E-001, 6.47938E-006
8.96026E-001, 6.42249E-006
8.94032E-001, 6.36171E-006
8.92025E-001, 6.32876E-006
8.90029E-001, 6.26919E-006
8.87970E-001, 6.22337E-006
8.85977E-001, 6.19414E-006
8.83985E-001, 6.14017E-006
8.81962E-001, 6.10044E-006
8.79977E-001, 6.04954E-006
8.77977E-001, 5.99919E-006
8.75957E-001, 5.95954E-006
8.73982E-001, 5.90325E-006
8.71974E-001, 5.84920E-006
8.69964E-001, 5.82480E-006
8.67988E-001, 5.77860E-006
8.65967E-001, 5.74973E-006
8.63975E-001, 5.69448E-006
8.61980E-001, 5.64740E-006
8.59964E-001, 5.60672E-006
8.57975E-001, 5.55450E-006
8.55966E-001, 5.51367E-006
8.53961E-001, 5.46842E-006
8.51979E-001, 5.43105E-006
8.49968E-001, 5.40022E-006
8.47992E-001, 5.35624E-006
8.45983E-001, 5.31216E-006
8.43985E-001, 5.26935E-006
8.41987E-001, 5.21968E-006
8.39978E-001, 5.17738E-006
8.37961E-001, 5.13066E-006
8.35988E-001, 5.08887E-006
8.33989E-001, 5.06077E-006
8.31993E-001, 5.01778E-006
8.29970E-001, 4.97707E-006
8.27969E-001, 4.93645E-006
8.25970E-001, 4.88870E-006
8.23981E-001, 4.85061E-006
8.21977E-001, 4.79979E-006
8.19978E-001, 4.75930E-006
8.17995E-001, 4.72369E-006
8.16005E-001, 4.68573E-006
8.14008E-001, 4.65001E-006
8.11993E-001, 4.60701E-006
8.10024E-001, 4.56368E-006
8.08022E-001, 4.52165E-006
8.06002E-001, 4.47587E-006
8.04015E-001, 4.43153E-006
8.01997E-001, 4.39461E-006
8.00014E-001, 4.35688E-006
7.98014E-001, 4.31581E-006
7.96024E-001, 4.27985E-006
7.94019E-001, 4.24080E-006
7.92013E-001, 4.19438E-006
7.90021E-001, 4.15409E-006
7.88017E-001, 4.10769E-006
7.86013E-001, 4.06791E-006
7.84034E-001, 4.02937E-006
7.82023E-001, 3.99318E-006
7.80007E-001, 3.95475E-006
7.78025E-001, 3.91906E-006
7.76012E-001, 3.87306E-006
7.74005E-001, 3.82864E-006
7.72029E-001, 3.78490E-006
7.70028E-001, 3.74213E-006
7.68023E-001, 3.70915E-006
7.65999E-001, 3.68018E-006
7.64012E-001, 3.63189E-006
7.62023E-001, 3.59822E-006
7.60020E-001, 3.55578E-006
7.58020E-001, 3.50045E-006
7.56040E-001, 3.47427E-006
7.54025E-001, 3.42135E-006
7.52019E-001, 3.38455E-006
7.50019E-001, 3.36034E-006
7.48019E-001, 3.31462E-006
7.46039E-001, 3.27552E-006
7.44038E-001, 3.23585E-006
7.42033E-001, 3.18956E-006
7.40030E-001, 3.15037E-006
7.38024E-001, 3.11161E-006
7.36033E-001, 3.06949E-006
7.34031E-001, 3.03339E-006
7.32038E-001, 2.99690E-006
7.30041E-001, 2.95340E-006
7.27978E-001, 2.91524E-006
7.25965E-001, 2.87744E-006
7.23982E-001, 2.82943E-006
7.21975E-001, 2.79213E-006
7.19984E-001, 2.75026E-006
7.17973E-001, 2.70794E-006
7.15980E-001, 2.67807E-006
7.13967E-001, 2.63352E-006
7.11957E-001, 2.59764E-006
7.09962E-001, 2.55880E-006
7.07985E-001, 2.51132E-006
7.05992E-001, 2.47055E-006
7.03986E-001, 2.43125E-006
7.01966E-001, 2.39437E-006
6.99960E-001, 2.35533E-006
6.97981E-001, 2.31683E-006
6.95979E-001, 2.27368E-006
6.93983E-001, 2.23197E-006
6.91985E-001, 2.19148E-006
6.89982E-001, 2.15366E-006
6.87977E-001, 2.11482E-006
6.85973E-001, 2.07379E-006
6.83981E-001, 2.03073E-006
6.81991E-001, 1.99077E-006
6.79989E-001, 1.95053E-006
6.77977E-001, 1.91402E-006
6.75959E-001, 1.87032E-006
6.73970E-001, 1.82872E-006
6.72005E-001, 1.78679E-006
6.69985E-001, 1.74742E-006
6.67985E-001, 1.70610E-006
6.65996E-001, 1.66204E-006
6.63987E-001, 1.62674E-006
6.61968E-001, 1.58049E-006
6.59988E-001, 1.53903E-006
6.57974E-001, 1.49826E-006
6.55973E-001, 1.45501E-006
6.53974E-001, 1.41821E-006
6.51960E-001, 1.37598E-006
6.49962E-001, 1.33370E-006
6.47970E-001, 1.29230E-006
6.45971E-001, 1.24774E-006
6.43983E-001, 1.20827E-006
6.41981E-001, 1.16377E-006
6.39995E-001, 1.12404E-006
6.37994E-001, 1.08019E-006
6.35975E-001, 1.03627E-006
6.33986E-001, 9.93913E-007
6.31983E-001, 9.50649E-007
6.29985E-001, 9.06487E-007
6.27993E-001, 8.64152E-007
6.25990E-001, 8.19164E-007
6.23980E-001, 7.75773E-007
6.21980E-001, 7.23812E-007
6.19970E-001, 6.78824E-007
6.17983E-001, 6.36463E-007
6.15969E-001, 5.91026E-007
6.14001E-001, 5.47282E-007
6.11999E-001, 5.02792E-007
6.10009E-001, 4.56605E-007
6.08019E-001, 4.09955E-007
6.06015E-001, 3.64827E-007
6.04020E-001, 3.17317E-007
6.02029E-001, 2.70539E-007
6.00009E-001, 2.25544E-007
5.98011E-001, 1.77004E-007
5.96012E-001, 1.29768E-007
5.94005E-001, 8.07247E-008
5.92021E-001, 3.22243E-008
5.90015E-001, -1.62713E-008
5.88031E-001, -6.51107E-008
5.86009E-001, -1.12942E-007
5.84025E-001, -1.62264E-007
5.82025E-001, -2.12384E-007
5.80024E-001, -2.67203E-007
5.78028E-001, -3.16311E-007
5.76032E-001, -3.70309E-007
5.74014E-001, -4.22538E-007
5.72018E-001, -4.73133E-007
5.70031E-001, -5.29696E-007
5.68019E-001, -5.79671E-007
5.65974E-001, -6.37499E-007
5.63982E-001, -6.90251E-007
5.61975E-001, -7.45860E-007
5.59965E-001, -8.03168E-007
5.57984E-001, -8.58421E-007
5.55982E-001, -9.15270E-007
5.53976E-001, -9.61313E-007
5.51971E-001, -1.02132E-006
5.49992E-001, -1.07802E-006
5.47977E-001, -1.13468E-006
5.45970E-001, -1.19365E-006
5.43994E-001, -1.25067E-006
5.41983E-001, -1.31259E-006
5.39994E-001, -1.37202E-006
5.37993E-001, -1.43171E-006
5.36000E-001, -1.48894E-006
5.33989E-001, -1.54774E-006
5.31997E-001, -1.60533E-006
5.29984E-001, -1.66835E-006
5.27995E-001, -1.72760E-006
5.25989E-001, -1.78916E-006
5.23971E-001, -1.84941E-006
5.21984E-001, -1.90986E-006
5.19987E-001, -1.96647E-006
5.17989E-001, -2.02644E-006
5.15990E-001, -2.08429E-006
5.13988E-001, -2.14074E-006
5.11996E-001, -2.19953E-006
5.09987E-001, -2.25907E-006
5.07966E-001, -2.31602E-006
5.05986E-001, -2.37400E-006
5.03977E-001, -2.43130E-006
5.01994E-001, -2.48741E-006
4.99992E-001, -2.53981E-006
4.97966E-001, -2.59701E-006
4.95974E-001, -2.65320E-006
4.93984E-001, -2.70957E-006
4.91970E-001, -2.76319E-006
4.89994E-001, -2.81936E-006
4.87994E-001, -2.87621E-006
4.86005E-001, -2.93121E-006
4.83993E-001, -2.98833E-006
4.81977E-001, -3.04135E-006
4.79991E-001, -3.09617E-006
4.77967E-001, -3.15495E-006
4.75997E-001, -3.21218E-006
4.73998E-001, -3.27254E-006
4.71986E-001, -3.33203E-006
4.69974E-001, -3.39293E-006
4.67992E-001, -3.45624E-006
4.65986E-001, -3.51650E-006
4.64013E-001, -3.58352E-006
4.62000E-001, -3.65252E-006
4.60006E-001, -3.72208E-006
4.58001E-001, -3.79516E-006
4.55989E-001, -3.87253E-006
4.53993E-001, -3.95333E-006
4.51984E-001, -4.03237E-006
4.50005E-001, -4.12156E-006
4.48001E-001, -4.21020E-006
4.45996E-001, -4.30429E-006
4.43988E-001, -4.40459E-006
4.41995E-001, -4.50926E-006
4.39976E-001, -4.61972E-006
4.37996E-001, -4.73594E-006
4.35988E-001, -4.85811E-006
4.33984E-001, -4.98374E-006
4.31964E-001, -5.11713E-006
4.29975E-001, -5.25360E-006
4.27968E-001, -5.40271E-006
4.25985E-001, -5.55580E-006
4.24001E-001, -5.72029E-006
4.22000E-001, -5.88972E-006
4.19984E-001, -6.06753E-006
4.17997E-001, -6.25801E-006
4.16010E-001, -6.44823E-006
4.14006E-001, -6.64885E-006
4.11993E-001, -6.86028E-006
4.10017E-001, -7.08195E-006
4.08011E-001, -7.31273E-006
4.05959E-001, -7.57262E-006
4.03957E-001, -7.81858E-006
4.01959E-001, -8.08003E-006
3.99975E-001, -8.35174E-006
3.97980E-001, -8.63586E-006
3.95957E-001, -8.92992E-006
3.93956E-001, -9.23540E-006
3.91963E-001, -9.55881E-006
3.89969E-001, -9.89898E-006
3.87969E-001, -1.02495E-005
3.85979E-001, -1.06113E-005
3.83977E-001, -1.09957E-005
3.81974E-001, -1.13940E-005
3.79979E-001, -1.18121E-005
3.77972E-001, -1.22545E-005
3.75971E-001, -1.27068E-005
3.73968E-001, -1.31809E-005
3.71975E-001, -1.36815E-005
3.69951E-001, -1.42096E-005
3.67966E-001, -1.47596E-005
3.65965E-001, -1.53353E-005
3.63965E-001, -1.59358E-005
3.61972E-001, -1.65533E-005
3.59977E-001, -1.72131E-005
3.57983E-001, -1.78855E-005
3.55955E-001, -1.86017E-005
3.53963E-001, -1.93448E-005
3.51971E-001, -2.01084E-005
3.49970E-001, -2.09041E-005
3.47983E-001, -2.17295E-005
3.45978E-001, -2.25805E-005
3.43970E-001, -2.34631E-005
3.41974E-001, -2.43777E-005
3.39973E-001, -2.53107E-005
3.37974E-001, -2.62752E-005
3.35984E-001, -2.72645E-005
3.33987E-001, -2.82703E-005
3.31973E-001, -2.92914E-005
3.29977E-001, -3.03358E-005
3.27976E-001, -3.14029E-005
3.25980E-001, -3.24929E-005
3.23999E-001, -3.35937E-005
3.22011E-001, -3.46992E-005
3.20009E-001, -3.58156E-005
3.17990E-001, -3.69268E-005
3.15980E-001, -3.80625E-005
3.13986E-001, -3.91948E-005
3.11988E-001, -4.03241E-005
3.10001E-001, -4.14290E-005
3.07990E-001, -4.25201E-005
3.05996E-001, -4.36208E-005
3.03982E-001, -4.47081E-005
3.01995E-001, -4.57749E-005
2.99989E-001, -4.68234E-005
2.97995E-001, -4.78387E-005
2.95994E-001, -4.88214E-005
2.94001E-001, -4.97836E-005
2.91982E-001, -5.07034E-005
2.89992E-001, -5.16117E-005
2.87993E-001, -5.24629E-005
2.85979E-001, -5.32755E-005
2.83993E-001, -5.40355E-005
2.81988E-001, -5.47516E-005
2.79983E-001, -5.54238E-005
2.77979E-001, -5.60467E-005
2.75976E-001, -5.66338E-005
2.73986E-001, -5.71717E-005
2.71972E-001, -5.76472E-005
2.69992E-001, -5.80624E-005
2.67966E-001, -5.84384E-005
2.65981E-001, -5.87600E-005
2.63984E-001, -5.90381E-005
2.61978E-001, -5.92661E-005
2.59978E-001, -5.94353E-005
2.57982E-001, -5.95666E-005
2.55975E-001, -5.96314E-005
2.53978E-001, -5.96559E-005
2.51967E-001, -5.96404E-005
2.49969E-001, -5.95852E-005
2.47971E-001, -5.94862E-005
2.45937E-001, -5.94010E-005
2.43930E-001, -5.92051E-005
2.41918E-001, -5.89806E-005
2.39926E-001, -5.87275E-005
2.37930E-001, -5.84553E-005
2.35929E-001, -5.81484E-005
2.33932E-001, -5.78170E-005
2.31956E-001, -5.74509E-005
2.29953E-001, -5.70661E-005
2.27950E-001, -5.66714E-005
2.25944E-001, -5.62598E-005
2.23938E-001, -5.58380E-005
2.21929E-001, -5.54001E-005
2.19942E-001, -5.49455E-005
2.17944E-001, -5.44836E-005
2.15928E-001, -5.40216E-005
2.13936E-001, -5.35574E-005
2.11941E-001, -5.30873E-005
2.09934E-001, -5.26179E-005
2.07944E-001, -5.21452E-005
2.05964E-001, -5.16747E-005
2.03956E-001, -5.12029E-005
2.01967E-001, -5.07383E-005
1.99958E-001, -5.02807E-005
1.97965E-001, -4.98248E-005
1.95960E-001, -4.93751E-005
1.93971E-001, -4.89299E-005
1.91981E-001, -4.84924E-005
1.89952E-001, -4.80617E-005
1.87958E-001, -4.76373E-005
1.85960E-001, -4.72194E-005
1.83963E-001, -4.68095E-005
1.81962E-001, -4.64081E-005
1.79969E-001, -4.60139E-005
1.77957E-001, -4.56265E-005
1.75953E-001, -4.52497E-005
1.73975E-001, -4.48768E-005
1.71964E-001, -4.45148E-005
1.69969E-001, -4.41596E-005
1.67978E-001, -4.38125E-005
1.65974E-001, -4.34769E-005
1.63957E-001, -4.31425E-005
1.61968E-001, -4.28173E-005
1.59969E-001, -4.25013E-005
1.57974E-001, -4.21920E-005
1.55971E-001, -4.18933E-005
1.53987E-001, -4.15960E-005
1.51981E-001, -4.13073E-005
1.49964E-001, -4.10261E-005
1.47972E-001, -4.07512E-005
1.45965E-001, -4.04850E-005
1.43997E-001, -4.02230E-005
1.41991E-001, -3.99689E-005
1.39966E-001, -3.97213E-005
1.37977E-001, -3.94806E-005
1.35986E-001, -3.92427E-005
1.33981E-001, -3.90142E-005
1.31985E-001, -3.87879E-005
1.29985E-001, -3.85700E-005
1.28002E-001, -3.83579E-005
1.25980E-001, -3.81516E-005
1.23973E-001, -3.79501E-005
1.21985E-001, -3.77555E-005
1.19980E-001, -3.75631E-005
1.17995E-001, -3.73801E-005
1.16001E-001, -3.72007E-005
1.13969E-001, -3.70254E-005
1.11977E-001, -3.68564E-005
1.09983E-001, -3.66912E-005
1.07975E-001, -3.65329E-005
1.05985E-001, -3.63776E-005
1.03990E-001, -3.62291E-005
1.01988E-001, -3.60874E-005
9.99692E-002, -3.59478E-005
9.79716E-002, -3.58111E-005
9.59764E-002, -3.56814E-005
9.39916E-002, -3.55554E-005
9.19748E-002, -3.54357E-005
8.99955E-002, -3.53210E-005
8.79732E-002, -3.52113E-005
8.59229E-002, -3.51102E-005
8.39399E-002, -3.50069E-005
8.19272E-002, -3.49087E-005
7.99470E-002, -3.48155E-005
7.79481E-002, -3.47235E-005
7.59542E-002, -3.46403E-005
7.39373E-002, -3.45621E-005
7.19304E-002, -3.44870E-005
6.99486E-002, -3.44197E-005
6.79501E-002, -3.43500E-005
6.59349E-002, -3.42892E-005
6.39401E-002, -3.42311E-005
6.19379E-002, -3.41771E-005
5.99248E-002, -3.41302E-005
5.79429E-002, -3.40860E-005
5.59415E-002, -3.40474E-005
5.39426E-002, -3.40178E-005
5.19470E-002, -3.39923E-005
4.99547E-002, -3.39673E-005
4.79491E-002, -3.39510E-005
4.59377E-002, -3.39407E-005
4.39367E-002, -3.39369E-005
4.19311E-002, -3.39403E-005
3.99363E-002, -3.39531E-005
3.79440E-002, -3.39719E-005
3.59347E-002, -3.39996E-005
3.39483E-002, -3.40352E-005
3.19306E-002, -3.40759E-005
2.99446E-002, -3.41278E-005
2.79490E-002, -3.41907E-005
2.59513E-002, -3.42614E-005
2.39440E-002, -3.43401E-005
2.19484E-002, -3.44298E-005
1.99470E-002, -3.45262E-005
1.79443E-002, -3.46318E-005
1.59517E-002, -3.47449E-005
1.39436E-002, -3.48664E-005
1.19459E-002, -3.49922E-005
9.92734E-003, -3.51268E-005
7.93008E-003, -3.52653E-005
5.94742E-003, -3.54121E-005
3.93180E-003, -3.55624E-005
1.93996E-003, -3.57153E-005
-5.27087E-005, -3.58728E-005
-2.04914E-003, -3.60289E-005
-4.06892E-003, -3.61966E-005
-6.04407E-003, -3.63657E-005
-8.05301E-003, -3.65422E-005
-1.00415E-002, -3.67204E-005
-1.20350E-002, -3.69071E-005
-1.40494E-002, -3.70962E-005
-1.60567E-002, -3.72933E-005
-1.80497E-002, -3.75022E-005
-2.00449E-002, -3.77160E-005
-2.20272E-002, -3.79435E-005
-2.40390E-002, -3.81833E-005
-2.60259E-002, -3.84322E-005
-2.80536E-002, -3.86989E-005
-3.00521E-002, -3.89829E-005
-3.20306E-002, -3.92791E-005
-3.40366E-002, -3.96016E-005
-3.60259E-002, -3.99444E-005
-3.80299E-002, -4.03068E-005
-4.00388E-002, -4.06950E-005
-4.20369E-002, -4.11074E-005
-4.40337E-002, -4.15438E-005
-4.60348E-002, -4.19991E-005
-4.80249E-002, -4.24827E-005
-5.00309E-002, -4.30001E-005
-5.20215E-002, -4.35398E-005
-5.40430E-002, -4.41029E-005
-5.60427E-002, -4.46923E-005
-5.80300E-002, -4.53106E-005
-6.00302E-002, -4.59523E-005
-6.20337E-002, -4.66173E-005
-6.40251E-002, -4.73048E-005
-6.60345E-002, -4.80185E-005
-6.80518E-002, -4.87477E-005
-7.00248E-002, -4.94869E-005
-7.20288E-002, -5.02501E-005
-7.40302E-002, -5.10329E-005
-7.60700E-002, -5.18878E-005
-7.80723E-002, -5.26731E-005
-8.00854E-002, -5.34610E-005
-8.20801E-002, -5.42560E-005
-8.40886E-002, -5.50648E-005
-8.60663E-002, -5.58793E-005
-8.80686E-002, -5.66840E-005
-9.00608E-002, -5.74736E-005
-9.20723E-002, -5.82484E-005
-9.40733E-002, -5.90187E-005
-9.60618E-002, -5.97681E-005
-9.80590E-002, -6.04948E-005
-1.00069E-001, -6.12184E-005
-1.02044E-001, -6.18942E-005
-1.04079E-001, -6.25426E-005
-1.06077E-001, -6.31554E-005
-1.08061E-001, -6.37323E-005
-1.10083E-001, -6.42805E-005
-1.12060E-001, -6.47886E-005
-1.14057E-001, -6.52550E-005
-1.16087E-001, -6.56763E-005
-1.18065E-001, -6.60471E-005
-1.20070E-001, -6.63809E-005
-1.22070E-001, -6.66680E-005
-1.24067E-001, -6.68972E-005
-1.26063E-001, -6.70912E-005
-1.28057E-001, -6.72279E-005
-1.30077E-001, -6.73236E-005
-1.32062E-001, -6.73757E-005
-1.34071E-001, -6.73789E-005
-1.36071E-001, -6.73433E-005
-1.38070E-001, -6.72678E-005
-1.40069E-001, -6.71549E-005
-1.42082E-001, -6.70085E-005
-1.44063E-001, -6.68224E-005
-1.46069E-001, -6.66096E-005
-1.48075E-001, -6.63611E-005
-1.50055E-001, -6.60929E-005
-1.52045E-001, -6.57996E-005
-1.54039E-001, -6.54824E-005
-1.56073E-001, -6.51522E-005
-1.58066E-001, -6.48077E-005
-1.60059E-001, -6.44435E-005
-1.62068E-001, -6.40654E-005
-1.64063E-001, -6.36887E-005
-1.66057E-001, -6.32981E-005
-1.68059E-001, -6.29018E-005
-1.70073E-001, -6.25056E-005
-1.72058E-001, -6.20977E-005
-1.74062E-001, -6.16935E-005
-1.76052E-001, -6.12866E-005
-1.78039E-001, -6.08775E-005
-1.80046E-001, -6.04734E-005
-1.82064E-001, -6.00703E-005
-1.84066E-001, -5.96687E-005
-1.86059E-001, -5.92725E-005
-1.88060E-001, -5.88763E-005
-1.90056E-001, -5.84917E-005
-1.92052E-001, -5.81095E-005
-1.94062E-001, -5.77342E-005
-1.96069E-001, -5.73599E-005
-1.98054E-001, -5.69920E-005
-2.00072E-001, -5.66293E-005
-2.02053E-001, -5.62740E-005
-2.04061E-001, -5.59267E-005
-2.06039E-001, -5.55806E-005
-2.08047E-001, -5.52456E-005
-2.10041E-001, -5.49155E-005
-2.12030E-001, -5.45899E-005
-2.14039E-001, -5.42742E-005
-2.16032E-001, -5.39631E-005
-2.18021E-001, -5.36587E-005
-2.20047E-001, -5.33616E-005
-2.22046E-001, -5.30703E-005
-2.24045E-001, -5.27820E-005
-2.26046E-001, -5.25004E-005
-2.28038E-001, -5.22284E-005
-2.30038E-001, -5.19597E-005
-2.32031E-001, -5.16984E-005
-2.34030E-001, -5.14408E-005
-2.36077E-001, -5.11910E-005
-2.38070E-001, -5.09437E-005
-2.40076E-001, -5.07000E-005
-2.42066E-001, -5.04659E-005
-2.44087E-001, -5.02351E-005
-2.46077E-001, -5.00083E-005
-2.48067E-001, -4.97878E-005
-2.50060E-001, -4.95670E-005
-2.52055E-001, -4.93533E-005
-2.54051E-001, -4.91433E-005
-2.56055E-001, -4.89403E-005
-2.58062E-001, -4.87407E-005
-2.60080E-001, -4.85411E-005
-2.62063E-001, -4.83515E-005
-2.64064E-001, -4.81618E-005
-2.66051E-001, -4.79782E-005
-2.68062E-001, -4.77989E-005
-2.70080E-001, -4.76185E-005
-2.72078E-001, -4.74439E-005
-2.74071E-001, -4.72704E-005
-2.76086E-001, -4.71042E-005
-2.78064E-001, -4.69395E-005
-2.80064E-001, -4.67790E-005
-2.82057E-001, -4.66201E-005
-2.84069E-001, -4.64649E-005
-2.86083E-001, -4.63101E-005
-2.88060E-001, -4.61553E-005
-2.90045E-001, -4.60070E-005
-2.92035E-001, -4.58624E-005
-2.94045E-001, -4.57214E-005
-2.96059E-001, -4.55831E-005
-2.98066E-001, -4.54443E-005
-3.00064E-001, -4.53080E-005
-3.02074E-001, -4.51713E-005
-3.04048E-001, -4.50375E-005
-3.06045E-001, -4.49094E-005
-3.08044E-001, -4.47814E-005
-3.10057E-001, -4.46563E-005
-3.12056E-001, -4.45335E-005
-3.14057E-001, -4.44098E-005
-3.16060E-001, -4.42887E-005
-3.18054E-001, -4.41703E-005
-3.20051E-001, -4.40552E-005
-3.22063E-001, -4.39383E-005
-3.24073E-001, -4.38268E-005
-3.26057E-001, -4.37138E-005
-3.28076E-001, -4.36029E-005
-3.30065E-001, -4.34954E-005
-3.32058E-001, -4.33874E-005
-3.34066E-001, -4.32811E-005
-3.36055E-001, -4.31762E-005
-3.38060E-001, -4.30731E-005
-3.40050E-001, -4.29724E-005
-3.42043E-001, -4.28714E-005
-3.44041E-001, -4.27754E-005
-3.46042E-001, -4.26774E-005
-3.48045E-001, -4.25801E-005
-3.50046E-001, -4.24820E-005
-3.52031E-001, -4.23868E-005
-3.54040E-001, -4.22972E-005
-3.56033E-001, -4.22041E-005
-3.58047E-001, -4.21171E-005
-3.60041E-001, -4.20263E-005
-3.62057E-001, -4.19342E-005
-3.64051E-001, -4.18476E-005
-3.66049E-001, -4.17625E-005
-3.68048E-001, -4.16765E-005
-3.70046E-001, -4.15957E-005
-3.72032E-001, -4.15109E-005
-3.74065E-001, -4.14281E-005
-3.76052E-001, -4.13464E-005
-3.78049E-001, -4.12659E-005
-3.80044E-001, -4.11852E-005
-3.82041E-001, -4.11073E-005
-3.84026E-001, -4.10314E-005
-3.86034E-001, -4.09551E-005
-3.88052E-001, -4.08846E-005
-3.90055E-001, -4.08079E-005
-3.92043E-001, -4.07334E-005
-3.94044E-001, -4.06587E-005
-3.96075E-001, -4.05873E-005
-3.98099E-001, -4.05159E-005
-4.00104E-001, -4.04474E-005
-4.02091E-001, -4.03788E-005
-4.04090E-001, -4.03111E-005
-4.06089E-001, -4.02420E-005
-4.08084E-001, -4.01774E-005
-4.10058E-001, -4.01098E-005
-4.12077E-001, -4.00425E-005
-4.14068E-001, -3.99757E-005
-4.16061E-001, -3.99094E-005
-4.18057E-001, -3.98461E-005
-4.20054E-001, -3.97872E-005
-4.22052E-001, -3.97292E-005
-4.24076E-001, -3.96703E-005
-4.26069E-001, -3.96096E-005
-4.28075E-001, -3.95449E-005
-4.30059E-001, -3.94816E-005
-4.32068E-001, -3.94234E-005
-4.34072E-001, -3.93682E-005
-4.36042E-001, -3.93119E-005
-4.38068E-001, -3.92594E-005
-4.40065E-001, -3.92044E-005
-4.42060E-001, -3.91496E-005
-4.44058E-001, -3.90917E-005
-4.46055E-001, -3.90354E-005
-4.48046E-001, -3.89808E-005
-4.50059E-001, -3.89278E-005
-4.52055E-001, -3.88776E-005
-4.54060E-001, -3.88268E-005
-4.56058E-001, -3.87780E-005
-4.58053E-001, -3.87287E-005
-4.60044E-001, -3.86760E-005
-4.62051E-001, -3.86228E-005
-4.64068E-001, -3.85728E-005
-4.66061E-001, -3.85245E-005
-4.68040E-001, -3.84775E-005
-4.70051E-001, -3.84277E-005
-4.72030E-001, -3.83815E-005
-4.74049E-001, -3.83378E-005
-4.76044E-001, -3.82913E-005
-4.78054E-001, -3.82479E-005
-4.80045E-001, -3.81980E-005
-4.82039E-001, -3.81481E-005
-4.84044E-001, -3.80998E-005
-4.86039E-001, -3.80537E-005
-4.88047E-001, -3.80128E-005
-4.90052E-001, -3.79769E-005
-4.92062E-001, -3.79347E-005
-4.94048E-001, -3.78898E-005
-4.96052E-001, -3.78443E-005
-4.98036E-001, -3.77972E-005
-5.00042E-001, -3.77590E-005
-5.02068E-001, -3.77192E-005
-5.04036E-001, -3.76772E-005
-5.06041E-001, -3.76367E-005
-5.08044E-001, -3.75965E-005
-5.10032E-001, -3.75559E-005
-5.12039E-001, -3.75173E-005
-5.14044E-001, -3.74766E-005
-5.16041E-001, -3.74350E-005
-5.18047E-001, -3.73931E-005
-5.20033E-001, -3.73549E-005
-5.22041E-001, -3.73183E-005
-5.24032E-001, -3.72852E-005
-5.26062E-001, -3.72510E-005
-5.28046E-001, -3.72127E-005
-5.30040E-001, -3.71751E-005
-5.32041E-001, -3.71350E-005
-5.34050E-001, -3.70959E-005
-5.36042E-001, -3.70611E-005
-5.38027E-001, -3.70254E-005
-5.40051E-001, -3.69944E-005
-5.42050E-001, -3.69617E-005
-5.44049E-001, -3.69289E-005
-5.46034E-001, -3.68935E-005
-5.48032E-001, -3.68572E-005
-5.50027E-001, -3.68188E-005
-5.52042E-001, -3.67844E-005
-5.54040E-001, -3.67519E-005
-5.56026E-001, -3.67243E-005
-5.58081E-001, -3.66961E-005
-5.60080E-001, -3.66626E-005
-5.62071E-001, -3.66300E-005
-5.64073E-001, -3.65975E-005
-5.66084E-001, -3.65658E-005
-5.68097E-001, -3.65325E-005
-5.70098E-001, -3.65010E-005
-5.72089E-001, -3.64706E-005
-5.74086E-001, -3.64415E-005
-5.76084E-001, -3.64153E-005
-5.78097E-001, -3.63872E-005
-5.80085E-001, -3.63575E-005
-5.82084E-001, -3.63282E-005
-5.84092E-001, -3.62964E-005
-5.86086E-001, -3.62668E-005
-5.88074E-001, -3.62383E-005
-5.90086E-001, -3.62113E-005
-5.92091E-001, -3.61858E-005
-5.94069E-001, -3.61613E-005
-5.96076E-001, -3.61330E-005
-5.98093E-001, -3.61058E-005
-6.00084E-001, -3.60778E-005
-6.02063E-001, -3.60501E-005
-6.04098E-001, -3.60243E-005
-6.06081E-001, -3.59987E-005
-6.08079E-001, -3.59740E-005
-6.10081E-001, -3.59522E-005
-6.12064E-001, -3.59262E-005
-6.14073E-001, -3.59001E-005
-6.16064E-001, -3.58752E-005
-6.18058E-001, -3.58498E-005
-6.20048E-001, -3.58280E-005
-6.22063E-001, -3.58038E-005
-6.24061E-001, -3.57796E-005
-6.26053E-001, -3.57552E-005
-6.28038E-001, -3.57345E-005
-6.30067E-001, -3.57140E-005
-6.32053E-001, -3.56954E-005
-6.34055E-001, -3.56745E-005
-6.36046E-001, -3.56481E-005
-6.38044E-001, -3.56224E-005
-6.40026E-001, -3.56028E-005
-6.42033E-001, -3.55840E-005
-6.44056E-001, -3.55687E-005
-6.46048E-001, -3.55497E-005
-6.48045E-001, -3.55276E-005
-6.50051E-001, -3.55073E-005
-6.52041E-001, -3.54862E-005
-6.54067E-001, -3.54667E-005
-6.56057E-001, -3.54523E-005
-6.58050E-001, -3.54333E-005
-6.60058E-001, -3.54159E-005
-6.62056E-001, -3.53975E-005
-6.64041E-001, -3.53778E-005
-6.66034E-001, -3.53643E-005
-6.68037E-001, -3.53462E-005
-6.70059E-001, -3.53265E-005
-6.72042E-001, -3.53090E-005
-6.74053E-001, -3.52951E-005
-6.76028E-001, -3.52771E-005
-6.78032E-001, -3.52629E-005
-6.80048E-001, -3.52495E-005
-6.82039E-001, -3.52339E-005
-6.84018E-001, -3.52195E-005
-6.86015E-001, -3.52023E-005
-6.88034E-001, -3.51853E-005
-6.90026E-001, -3.51731E-005
-6.92013E-001, -3.51588E-005
-6.94031E-001, -3.51474E-005
-6.96033E-001, -3.51360E-005
-6.98043E-001, -3.51214E-005
-7.00030E-001, -3.51086E-005
-7.02029E-001, -3.50936E-005
-7.04024E-001, -3.50787E-005
-7.06041E-001, -3.50670E-005
-7.08038E-001, -3.50530E-005
-7.10032E-001, -3.50415E-005
-7.12021E-001, -3.50268E-005
-7.14018E-001, -3.50176E-005
-7.16015E-001, -3.50088E-005
-7.18094E-001, -3.49984E-005
-7.20079E-001, -3.49851E-005
-7.22099E-001, -3.49740E-005
-7.24082E-001, -3.49586E-005
-7.26073E-001, -3.49454E-005
-7.28077E-001, -3.49349E-005
-7.30067E-001, -3.49260E-005
-7.32085E-001, -3.49176E-005
-7.34082E-001, -3.49093E-005
-7.36083E-001, -3.48950E-005
-7.38071E-001, -3.48813E-005
-7.40064E-001, -3.48745E-005
-7.42063E-001, -3.48641E-005
-7.44063E-001, -3.48525E-005
-7.46069E-001, -3.48445E-005
-7.48074E-001, -3.48339E-005
-7.50081E-001, -3.48244E-005
-7.52072E-001, -3.48159E-005
-7.54068E-001, -3.48086E-005
-7.56059E-001, -3.48010E-005
-7.58081E-001, -3.47921E-005
-7.60069E-001, -3.47806E-005
-7.62079E-001, -3.47709E-005
-7.64069E-001, -3.47632E-005
-7.66080E-001, -3.47560E-005
-7.68063E-001, -3.47522E-005
-7.70078E-001, -3.47467E-005
-7.72086E-001, -3.47400E-005
-7.74084E-001, -3.47305E-005
-7.76079E-001, -3.47209E-005
-7.78070E-001, -3.47128E-005
-7.80061E-001, -3.47092E-005
-7.82069E-001, -3.47054E-005
-7.84072E-001, -3.47032E-005
-7.86073E-001, -3.46992E-005
-7.88056E-001, -3.46925E-005
-7.90053E-001, -3.46880E-005
-7.92057E-001, -3.46840E-005
-7.94055E-001, -3.46852E-005
-7.96061E-001, -3.46838E-005
-7.98054E-001, -3.46824E-005
-8.00074E-001, -3.46788E-005
-8.02065E-001, -3.46747E-005
-8.04053E-001, -3.46740E-005
-8.06049E-001, -3.46724E-005
-8.08073E-001, -3.46718E-005
-8.10057E-001, -3.46700E-005
-8.12070E-001, -3.46719E-005
-8.14052E-001, -3.46725E-005
-8.16065E-001, -3.46756E-005
-8.18054E-001, -3.46746E-005
-8.20044E-001, -3.46741E-005
-8.22056E-001, -3.46696E-005
-8.24043E-001, -3.46694E-005
-8.26039E-001, -3.46722E-005
-8.28029E-001, -3.46814E-005
-8.30029E-001, -3.46907E-005
-8.32025E-001, -3.46966E-005
-8.34040E-001, -3.46897E-005
-8.36033E-001, -3.46864E-005
-8.38015E-001, -3.46863E-005
-8.40023E-001, -3.46893E-005
-8.42023E-001, -3.46922E-005
-8.44020E-001, -3.47044E-005
-8.46007E-001, -3.47211E-005
-8.48028E-001, -3.47186E-005
-8.50020E-001, -3.47134E-005
-8.52018E-001, -3.47121E-005
-8.54007E-001, -3.47091E-005
-8.56015E-001, -3.47216E-005
-8.58003E-001, -3.47306E-005
-8.60034E-001, -3.47361E-005
-8.62022E-001, -3.47438E-005
-8.64025E-001, -3.47458E-005
-8.66017E-001, -3.47520E-005
-8.68005E-001, -3.47570E-005
-8.70007E-001, -3.47586E-005
-8.72013E-001, -3.47572E-005
-8.74026E-001, -3.47602E-005
-8.76018E-001, -3.47682E-005
-8.78060E-001, -3.47867E-005
-8.80059E-001, -3.47970E-005
-8.82064E-001, -3.48047E-005
-8.84060E-001, -3.48078E-005
-8.86064E-001, -3.48097E-005
-8.88074E-001, -3.48132E-005
-8.90069E-001, -3.48192E-005
-8.92062E-001, -3.48298E-005
-8.94061E-001, -3.48406E-005
-8.96048E-001, -3.48483E-005
-8.98050E-001, -3.48584E-005
-9.00054E-001, -3.48715E-005
-9.02044E-001, -3.48809E-005
-9.04052E-001, -3.48909E-005
-9.06048E-001, -3.48963E-005
-9.08043E-001, -3.48991E-005
-9.10027E-001, -3.49096E-005
-9.12058E-001, -3.49233E-005
-9.14053E-001, -3.49433E-005
-9.16045E-001, -3.49642E-005
-9.18050E-001, -3.49791E-005
-9.20043E-001, -3.49874E-005
-9.22036E-001, -3.49974E-005
-9.24052E-001, -3.50073E-005
-9.26048E-001, -3.50206E-005
-9.28056E-001, -3.50392E-005
-9.30044E-001, -3.50563E-005
-9.32048E-001, -3.50776E-005
-9.34043E-001, -3.50993E-005
-9.36060E-001, -3.51201E-005
-9.38049E-001, -3.51351E-005
-9.40040E-001, -3.51468E-005
-9.42042E-001, -3.51644E-005
-9.44048E-001, -3.51830E-005
-9.46037E-001, -3.52056E-005
-9.48036E-001, -3.52326E-005
-9.50052E-001, -3.52570E-005
-9.52049E-001, -3.52832E-005
-9.54050E-001, -3.53034E-005
-9.56039E-001, -3.53234E-005
-9.58048E-001, -3.53465E-005
-9.60033E-001, -3.53668E-005
-9.62058E-001, -3.53949E-005
-9.64039E-001, -3.54230E-005
-9.66046E-001, -3.54488E-005
-9.68040E-001, -3.54813E-005
-9.70041E-001, -3.55093E-005
-9.72032E-001, -3.55369E-005
-9.74028E-001, -3.55639E-005
-9.76039E-001, -3.55902E-005
-9.78057E-001, -3.56187E-005
-9.80031E-001, -3.56478E-005
-9.82057E-001, -3.56771E-005
-9.84045E-001, -3.57114E-005
-9.86033E-001, -3.57469E-005
-9.88048E-001, -3.57810E-005
-9.90036E-001, -3.58108E-005
-9.92037E-001, -3.58425E-005
-9.94043E-001, -3.58736E-005
-9.96037E-001, -3.59097E-005
-9.98028E-001, -3.59446E-005
-1.00004E+000, -3.59826E-005
##END=$$ End of the data block
