##TITLE=Spectrum
##JCAMP-DX=5.00 $$ chemotion-converter-app (1.1.0)
##DATA TYPE=CYCLIC VOLTAMMETRY
##DATA CLASS=XYPOINTS
##ORIGIN=
##OWNER=
##XUNITS=Voltage in V
##YUNITS=Current in A
##DATE=3.7.2020
##SCAN_RATE=0.0999998
##STEP_SIZE=0.002
##CYCLES=2
##SOFTWARE_VERSION=7.8.1
##SOFTWARE=Framework
##VOLTAGE_LIMIT_END=0.00000E+000
##SERIAL=IFC1010-23191
##FIRSTX=-9.98039E-001
##LASTX=-4.60359E-005
##MINX=-0.998039
##MAXX=2.2250738585072014e-308
##MINY=-3.57141e-05
##MAXY=1.58731e-05
##NPOINTS=500
##FIRSTY=-3.57141E-005
##XUNITS=Voltage in V
##YUNITS=Current in A
##XYPOINTS=(XY..XY)
-9.98039E-001, -3.57141E-005
-9.96049E-001, -3.54959E-005
-9.94051E-001, -3.53064E-005
-9.92058E-001, -3.51381E-005
-9.90052E-001, -3.49822E-005
-9.88055E-001, -3.48382E-005
-9.86043E-001, -3.47001E-005
-9.84052E-001, -3.45714E-005
-9.82044E-001, -3.44486E-005
-9.80044E-001, -3.43362E-005
-9.78058E-001, -3.42286E-005
-9.76032E-001, -3.41243E-005
-9.74036E-001, -3.40261E-005
-9.72046E-001, -3.39282E-005
-9.70050E-001, -3.38305E-005
-9.68065E-001, -3.37418E-005
-9.66053E-001, -3.36550E-005
-9.64037E-001, -3.35737E-005
-9.62047E-001, -3.34968E-005
-9.60025E-001, -3.34186E-005
-9.58038E-001, -3.33428E-005
-9.56035E-001, -3.32690E-005
-9.54051E-001, -3.31972E-005
-9.52051E-001, -3.31288E-005
-9.50050E-001, -3.30617E-005
-9.48039E-001, -3.29958E-005
-9.46048E-001, -3.29364E-005
-9.44068E-001, -3.28750E-005
-9.42060E-001, -3.28165E-005
-9.40061E-001, -3.27580E-005
-9.38055E-001, -3.26979E-005
-9.36072E-001, -3.26436E-005
-9.34059E-001, -3.25928E-005
-9.32041E-001, -3.25410E-005
-9.30049E-001, -3.24889E-005
-9.28059E-001, -3.24378E-005
-9.26042E-001, -3.23870E-005
-9.24064E-001, -3.23436E-005
-9.22055E-001, -3.22984E-005
-9.20054E-001, -3.22564E-005
-9.18070E-001, -3.22118E-005
-9.16056E-001, -3.21645E-005
-9.14055E-001, -3.21178E-005
-9.12053E-001, -3.20776E-005
-9.10041E-001, -3.20373E-005
-9.08049E-001, -3.20002E-005
-9.06041E-001, -3.19628E-005
-9.04062E-001, -3.19240E-005
-9.02045E-001, -3.18820E-005
-9.00057E-001, -3.18413E-005
-8.98053E-001, -3.18071E-005
-8.96051E-001, -3.17745E-005
-8.94051E-001, -3.17428E-005
-8.92063E-001, -3.17093E-005
-8.90055E-001, -3.16738E-005
-8.88065E-001, -3.16400E-005
-8.86061E-001, -3.16077E-005
-8.84051E-001, -3.15754E-005
-8.82053E-001, -3.15450E-005
-8.80054E-001, -3.15134E-005
-8.78056E-001, -3.14822E-005
-8.76020E-001, -3.14511E-005
-8.74026E-001, -3.14211E-005
-8.72020E-001, -3.13946E-005
-8.70004E-001, -3.13711E-005
-8.68010E-001, -3.13400E-005
-8.66020E-001, -3.13148E-005
-8.64023E-001, -3.12845E-005
-8.62009E-001, -3.12545E-005
-8.60031E-001, -3.12299E-005
-8.57997E-001, -3.12020E-005
-8.56017E-001, -3.11811E-005
-8.54016E-001, -3.11594E-005
-8.52009E-001, -3.11370E-005
-8.50018E-001, -3.11095E-005
-8.48027E-001, -3.10802E-005
-8.46016E-001, -3.10556E-005
-8.44006E-001, -3.10357E-005
-8.42028E-001, -3.10169E-005
-8.40024E-001, -3.09923E-005
-8.38022E-001, -3.09721E-005
-8.36036E-001, -3.09505E-005
-8.34051E-001, -3.09265E-005
-8.32026E-001, -3.09044E-005
-8.30025E-001, -3.08806E-005
-8.28028E-001, -3.08599E-005
-8.26027E-001, -3.08427E-005
-8.24031E-001, -3.08221E-005
-8.22065E-001, -3.08050E-005
-8.20055E-001, -3.07860E-005
-8.18055E-001, -3.07658E-005
-8.16069E-001, -3.07422E-005
-8.14072E-001, -3.07230E-005
-8.12079E-001, -3.07049E-005
-8.10070E-001, -3.06900E-005
-8.08085E-001, -3.06725E-005
-8.06054E-001, -3.06535E-005
-8.04064E-001, -3.06359E-005
-8.02070E-001, -3.06198E-005
-8.00058E-001, -3.05997E-005
-7.98051E-001, -3.05798E-005
-7.96061E-001, -3.05622E-005
-7.94062E-001, -3.05452E-005
-7.92062E-001, -3.05327E-005
-7.90069E-001, -3.05156E-005
-7.88068E-001, -3.05032E-005
-7.86083E-001, -3.04876E-005
-7.84084E-001, -3.04664E-005
-7.82063E-001, -3.04467E-005
-7.80066E-001, -3.04333E-005
-7.78073E-001, -3.04185E-005
-7.76078E-001, -3.04069E-005
-7.74079E-001, -3.03944E-005
-7.72087E-001, -3.03762E-005
-7.70068E-001, -3.03584E-005
-7.68062E-001, -3.03443E-005
-7.66076E-001, -3.03290E-005
-7.64074E-001, -3.03149E-005
-7.62083E-001, -3.03017E-005
-7.60064E-001, -3.02889E-005
-7.58083E-001, -3.02764E-005
-7.56066E-001, -3.02621E-005
-7.54077E-001, -3.02485E-005
-7.52083E-001, -3.02358E-005
-7.50078E-001, -3.02219E-005
-7.48072E-001, -3.02060E-005
-7.46086E-001, -3.01906E-005
-7.44069E-001, -3.01790E-005
-7.42067E-001, -3.01677E-005
-7.40074E-001, -3.01607E-005
-7.38079E-001, -3.01457E-005
-7.36095E-001, -3.01339E-005
-7.34088E-001, -3.01193E-005
-7.32090E-001, -3.01029E-005
-7.30058E-001, -3.00924E-005
-7.28071E-001, -3.00828E-005
-7.26088E-001, -3.00715E-005
-7.24086E-001, -3.00605E-005
-7.22092E-001, -3.00486E-005
-7.20081E-001, -3.00358E-005
-7.18092E-001, -3.00224E-005
-7.16035E-001, -3.00094E-005
-7.14038E-001, -2.99982E-005
-7.12034E-001, -2.99893E-005
-7.10039E-001, -2.99786E-005
-7.08039E-001, -2.99645E-005
-7.06049E-001, -2.99566E-005
-7.04036E-001, -2.99432E-005
-7.02038E-001, -2.99331E-005
-7.00040E-001, -2.99248E-005
-6.98054E-001, -2.99130E-005
-6.96050E-001, -2.99024E-005
-6.94039E-001, -2.98901E-005
-6.92016E-001, -2.98782E-005
-6.90031E-001, -2.98701E-005
-6.88033E-001, -2.98622E-005
-6.86026E-001, -2.98526E-005
-6.84025E-001, -2.98438E-005
-6.82036E-001, -2.98303E-005
-6.80052E-001, -2.98151E-005
-6.78036E-001, -2.98050E-005
-6.76034E-001, -2.97981E-005
-6.74040E-001, -2.97902E-005
-6.72036E-001, -2.97851E-005
-6.70045E-001, -2.97741E-005
-6.68046E-001, -2.97609E-005
-6.66020E-001, -2.97493E-005
-6.64040E-001, -2.97386E-005
-6.62045E-001, -2.97324E-005
-6.60038E-001, -2.97255E-005
-6.58042E-001, -2.97192E-005
-6.56060E-001, -2.97090E-005
-6.54066E-001, -2.96965E-005
-6.52038E-001, -2.96866E-005
-6.50055E-001, -2.96769E-005
-6.48045E-001, -2.96677E-005
-6.46051E-001, -2.96592E-005
-6.44060E-001, -2.96556E-005
-6.42048E-001, -2.96485E-005
-6.40040E-001, -2.96382E-005
-6.38069E-001, -2.96322E-005
-6.36060E-001, -2.96190E-005
-6.34065E-001, -2.96107E-005
-6.32062E-001, -2.96033E-005
-6.30075E-001, -2.95939E-005
-6.28047E-001, -2.95866E-005
-6.26054E-001, -2.95792E-005
-6.24060E-001, -2.95722E-005
-6.22043E-001, -2.95649E-005
-6.20044E-001, -2.95584E-005
-6.18061E-001, -2.95491E-005
-6.16055E-001, -2.95394E-005
-6.14076E-001, -2.95301E-005
-6.12067E-001, -2.95219E-005
-6.10075E-001, -2.95151E-005
-6.08075E-001, -2.95099E-005
-6.06072E-001, -2.95064E-005
-6.04082E-001, -2.95011E-005
-6.02068E-001, -2.94902E-005
-6.00078E-001, -2.94806E-005
-5.98077E-001, -2.94696E-005
-5.96074E-001, -2.94620E-005
-5.94090E-001, -2.94559E-005
-5.92092E-001, -2.94535E-005
-5.90083E-001, -2.94466E-005
-5.88075E-001, -2.94413E-005
-5.86093E-001, -2.94339E-005
-5.84090E-001, -2.94244E-005
-5.82096E-001, -2.94145E-005
-5.80088E-001, -2.94081E-005
-5.78096E-001, -2.93994E-005
-5.76085E-001, -2.93964E-005
-5.74080E-001, -2.93913E-005
-5.72099E-001, -2.93835E-005
-5.70098E-001, -2.93783E-005
-5.68108E-001, -2.93701E-005
-5.66098E-001, -2.93615E-005
-5.64081E-001, -2.93548E-005
-5.62088E-001, -2.93431E-005
-5.60101E-001, -2.93392E-005
-5.58105E-001, -2.93361E-005
-5.56044E-001, -2.93320E-005
-5.54063E-001, -2.93297E-005
-5.52062E-001, -2.93219E-005
-5.50038E-001, -2.93095E-005
-5.48030E-001, -2.92993E-005
-5.46034E-001, -2.92920E-005
-5.44045E-001, -2.92846E-005
-5.42047E-001, -2.92856E-005
-5.40045E-001, -2.92823E-005
-5.38034E-001, -2.92795E-005
-5.36040E-001, -2.92735E-005
-5.34041E-001, -2.92626E-005
-5.32037E-001, -2.92522E-005
-5.30035E-001, -2.92434E-005
-5.28044E-001, -2.92399E-005
-5.26059E-001, -2.92388E-005
-5.24042E-001, -2.92331E-005
-5.22045E-001, -2.92279E-005
-5.20038E-001, -2.92186E-005
-5.18046E-001, -2.92141E-005
-5.16042E-001, -2.92061E-005
-5.14039E-001, -2.91980E-005
-5.12036E-001, -2.91916E-005
-5.10037E-001, -2.91863E-005
-5.08051E-001, -2.91826E-005
-5.06035E-001, -2.91795E-005
-5.04041E-001, -2.91757E-005
-5.02041E-001, -2.91703E-005
-5.00019E-001, -2.91637E-005
-4.98035E-001, -2.91496E-005
-4.96037E-001, -2.91421E-005
-4.94041E-001, -2.91367E-005
-4.92045E-001, -2.91334E-005
-4.90048E-001, -2.91321E-005
-4.88053E-001, -2.91263E-005
-4.86039E-001, -2.91209E-005
-4.84042E-001, -2.91127E-005
-4.82042E-001, -2.91051E-005
-4.80047E-001, -2.90967E-005
-4.78050E-001, -2.90920E-005
-4.76056E-001, -2.90869E-005
-4.74044E-001, -2.90815E-005
-4.72039E-001, -2.90781E-005
-4.70056E-001, -2.90717E-005
-4.68054E-001, -2.90646E-005
-4.66062E-001, -2.90607E-005
-4.64057E-001, -2.90545E-005
-4.62050E-001, -2.90505E-005
-4.60040E-001, -2.90425E-005
-4.58058E-001, -2.90356E-005
-4.56046E-001, -2.90304E-005
-4.54049E-001, -2.90252E-005
-4.52057E-001, -2.90226E-005
-4.50060E-001, -2.90216E-005
-4.48038E-001, -2.90172E-005
-4.46045E-001, -2.90096E-005
-4.44047E-001, -2.90010E-005
-4.42060E-001, -2.89983E-005
-4.40063E-001, -2.89899E-005
-4.38074E-001, -2.89891E-005
-4.36043E-001, -2.89857E-005
-4.34067E-001, -2.89806E-005
-4.32065E-001, -2.89787E-005
-4.30061E-001, -2.89730E-005
-4.28059E-001, -2.89679E-005
-4.26060E-001, -2.89639E-005
-4.24075E-001, -2.89570E-005
-4.22047E-001, -2.89540E-005
-4.20057E-001, -2.89490E-005
-4.18063E-001, -2.89463E-005
-4.16079E-001, -2.89446E-005
-4.14073E-001, -2.89408E-005
-4.12096E-001, -2.89385E-005
-4.10071E-001, -2.89335E-005
-4.08090E-001, -2.89277E-005
-4.06098E-001, -2.89220E-005
-4.04090E-001, -2.89169E-005
-4.02101E-001, -2.89135E-005
-4.00107E-001, -2.89138E-005
-3.98106E-001, -2.89128E-005
-3.96072E-001, -2.89092E-005
-3.94035E-001, -2.89028E-005
-3.92047E-001, -2.88972E-005
-3.90040E-001, -2.88921E-005
-3.88046E-001, -2.88879E-005
-3.86046E-001, -2.88850E-005
-3.84032E-001, -2.88835E-005
-3.82043E-001, -2.88802E-005
-3.80053E-001, -2.88771E-005
-3.78060E-001, -2.88721E-005
-3.76060E-001, -2.88689E-005
-3.74067E-001, -2.88655E-005
-3.72052E-001, -2.88597E-005
-3.70052E-001, -2.88553E-005
-3.68063E-001, -2.88502E-005
-3.66060E-001, -2.88463E-005
-3.64049E-001, -2.88456E-005
-3.62068E-001, -2.88415E-005
-3.60056E-001, -2.88408E-005
-3.58050E-001, -2.88348E-005
-3.56047E-001, -2.88313E-005
-3.54057E-001, -2.88222E-005
-3.52050E-001, -2.88182E-005
-3.50059E-001, -2.88133E-005
-3.48062E-001, -2.88101E-005
-3.46046E-001, -2.88107E-005
-3.44045E-001, -2.88059E-005
-3.42054E-001, -2.88014E-005
-3.40054E-001, -2.87985E-005
-3.38071E-001, -2.87879E-005
-3.36048E-001, -2.87851E-005
-3.34052E-001, -2.87817E-005
-3.32047E-001, -2.87789E-005
-3.30057E-001, -2.87735E-005
-3.28059E-001, -2.87671E-005
-3.26066E-001, -2.87651E-005
-3.24070E-001, -2.87613E-005
-3.22070E-001, -2.87536E-005
-3.20056E-001, -2.87491E-005
-3.18059E-001, -2.87410E-005
-3.16064E-001, -2.87363E-005
-3.14057E-001, -2.87307E-005
-3.12071E-001, -2.87253E-005
-3.10071E-001, -2.87216E-005
-3.08048E-001, -2.87168E-005
-3.06044E-001, -2.87126E-005
-3.04050E-001, -2.87022E-005
-3.02060E-001, -2.86959E-005
-3.00059E-001, -2.86877E-005
-2.98066E-001, -2.86789E-005
-2.96070E-001, -2.86722E-005
-2.94060E-001, -2.86682E-005
-2.92050E-001, -2.86644E-005
-2.90059E-001, -2.86565E-005
-2.88060E-001, -2.86472E-005
-2.86066E-001, -2.86351E-005
-2.84067E-001, -2.86229E-005
-2.82039E-001, -2.86146E-005
-2.80045E-001, -2.86060E-005
-2.78059E-001, -2.86023E-005
-2.76071E-001, -2.85911E-005
-2.74070E-001, -2.85789E-005
-2.72071E-001, -2.85678E-005
-2.70076E-001, -2.85533E-005
-2.68057E-001, -2.85380E-005
-2.66058E-001, -2.85270E-005
-2.64057E-001, -2.85120E-005
-2.62058E-001, -2.84948E-005
-2.60066E-001, -2.84796E-005
-2.58063E-001, -2.84642E-005
-2.56057E-001, -2.84471E-005
-2.54049E-001, -2.84311E-005
-2.52060E-001, -2.84077E-005
-2.50057E-001, -2.83864E-005
-2.48061E-001, -2.83608E-005
-2.46058E-001, -2.83367E-005
-2.44079E-001, -2.83115E-005
-2.42057E-001, -2.82854E-005
-2.40073E-001, -2.82603E-005
-2.38078E-001, -2.82320E-005
-2.36090E-001, -2.81937E-005
-2.34039E-001, -2.81515E-005
-2.32045E-001, -2.81127E-005
-2.30035E-001, -2.80718E-005
-2.28037E-001, -2.80336E-005
-2.26051E-001, -2.79902E-005
-2.24042E-001, -2.79418E-005
-2.22034E-001, -2.78851E-005
-2.20050E-001, -2.78298E-005
-2.18022E-001, -2.77662E-005
-2.16028E-001, -2.77026E-005
-2.14037E-001, -2.76344E-005
-2.12026E-001, -2.75598E-005
-2.10030E-001, -2.74818E-005
-2.08042E-001, -2.73982E-005
-2.06048E-001, -2.73078E-005
-2.04052E-001, -2.72189E-005
-2.02046E-001, -2.71157E-005
-2.00068E-001, -2.70040E-005
-1.98051E-001, -2.68835E-005
-1.96070E-001, -2.67529E-005
-1.94055E-001, -2.66191E-005
-1.92060E-001, -2.64811E-005
-1.90065E-001, -2.63362E-005
-1.88063E-001, -2.61756E-005
-1.86066E-001, -2.60016E-005
-1.84082E-001, -2.58118E-005
-1.82077E-001, -2.56133E-005
-1.80071E-001, -2.54066E-005
-1.78071E-001, -2.51904E-005
-1.76083E-001, -2.49617E-005
-1.74079E-001, -2.47141E-005
-1.72074E-001, -2.44469E-005
-1.70085E-001, -2.41644E-005
-1.68068E-001, -2.38627E-005
-1.66061E-001, -2.35462E-005
-1.64084E-001, -2.32196E-005
-1.62077E-001, -2.28707E-005
-1.60080E-001, -2.25026E-005
-1.58072E-001, -2.21133E-005
-1.56070E-001, -2.17005E-005
-1.54039E-001, -2.12725E-005
-1.52056E-001, -2.08237E-005
-1.50063E-001, -2.03458E-005
-1.48074E-001, -1.98455E-005
-1.46081E-001, -1.93172E-005
-1.44061E-001, -1.87687E-005
-1.42077E-001, -1.81974E-005
-1.40069E-001, -1.76041E-005
-1.38077E-001, -1.69867E-005
-1.36089E-001, -1.63371E-005
-1.34084E-001, -1.56664E-005
-1.32090E-001, -1.49660E-005
-1.30082E-001, -1.42503E-005
-1.28069E-001, -1.35038E-005
-1.26070E-001, -1.27379E-005
-1.24076E-001, -1.19460E-005
-1.22059E-001, -1.11252E-005
-1.20075E-001, -1.02855E-005
-1.18079E-001, -9.42522E-006
-1.16099E-001, -8.54414E-006
-1.14080E-001, -7.64870E-006
-1.12065E-001, -6.73685E-006
-1.10070E-001, -5.80411E-006
-1.08065E-001, -4.86681E-006
-1.06092E-001, -3.92435E-006
-1.04089E-001, -2.96596E-006
-1.02050E-001, -2.00814E-006
-1.00073E-001, -1.03652E-006
-9.80628E-002, -5.26495E-008
-9.60226E-002, 9.98990E-007
-9.40691E-002, 1.85681E-006
-9.20756E-002, 2.81547E-006
-9.00546E-002, 3.75366E-006
-8.80665E-002, 4.68596E-006
-8.60613E-002, 5.59132E-006
-8.40866E-002, 6.48501E-006
-8.20855E-002, 7.35162E-006
-8.00899E-002, 8.18333E-006
-7.80818E-002, 8.98171E-006
-7.60654E-002, 9.76681E-006
-7.40310E-002, 1.05772E-005
-7.20221E-002, 1.12656E-005
-7.00215E-002, 1.19189E-005
-6.80392E-002, 1.25120E-005
-6.60215E-002, 1.30805E-005
-6.40251E-002, 1.35857E-005
-6.20249E-002, 1.40530E-005
-6.00310E-002, 1.44628E-005
-5.80300E-002, 1.48306E-005
-5.60298E-002, 1.51342E-005
-5.40422E-002, 1.53804E-005
-5.20336E-002, 1.55725E-005
-5.00326E-002, 1.57170E-005
-4.80216E-002, 1.58235E-005
-4.60352E-002, 1.58731E-005
-4.40321E-002, 1.58706E-005
-4.20311E-002, 1.58182E-005
-4.00471E-002, 1.57197E-005
-3.80407E-002, 1.55938E-005
-3.60326E-002, 1.54187E-005
-3.40341E-002, 1.52130E-005
-3.20285E-002, 1.49749E-005
-3.00383E-002, 1.47050E-005
-2.80573E-002, 1.44034E-005
-2.60254E-002, 1.40829E-005
-2.40449E-002, 1.37394E-005
-2.20376E-002, 1.33854E-005
-2.00391E-002, 1.30151E-005
-1.80389E-002, 1.26351E-005
-1.60558E-002, 1.22424E-005
-1.40590E-002, 1.18463E-005
-1.20542E-002, 1.14486E-005
-1.00461E-002, 1.10397E-005
-8.05093E-003, 1.06312E-005
-6.03532E-003, 1.02248E-005
-4.05974E-003, 9.81985E-006
-2.03788E-003, 9.42138E-006
-4.60359E-005, 9.02068E-006
##END=$$ End of the data block
