##TITLE=Spectrum
##JCAMP-DX=5.00 $$ chemotion-converter-app (1.5.0)
##DATA TYPE=CYCLIC VOLTAMMETRY
##DATA CLASS=XYPOINTS
##ORIGIN=
##OWNER=
##XUNITS=Voltage in V
##YUNITS=Current in A
##DATE=3.7.2020
##SCAN_RATE=0.0999998
##STEP_SIZE=0.002
##CYCLES=2
##SOFTWARE_VERSION=7.8.1
##SOFTWARE=Framework
##TIME=14:45:01
##VOLTAGE_START=0.00000E+000
##VOLTAGE_LIMIT_ONE=1.00000E+000
##VOLTAGE_LIMIT_TWO=-1.00000E+000
##VOLTAGE_LIMIT_END=0.00000E+000
##SERIAL=IFC1010-23191
##INSTRUMENT=Potentiostat
##FIRSTX=-2.97708E-005
##LASTX=-1.00003E+000
##MINX=-1.00003
##MAXX=1.00003
##MINY=-6.69757e-05
##MAXY=4.28934e-05
##NPOINTS=1501
##FIRSTY=-2.37528E-005
##XUNITS=Voltage in V
##YUNITS=Current in A
##XYPOINTS=(XY..XY)
-2.97708E-005, -2.37528E-005
1.95623E-003, -2.26242E-005
3.96809E-003, -2.18643E-005
5.95993E-003, -2.12783E-005
7.95260E-003, -2.07972E-005
9.93610E-003, -2.03868E-005
1.19813E-002, -2.00289E-005
1.39607E-002, -1.97120E-005
1.59517E-002, -1.94302E-005
1.79485E-002, -1.91757E-005
1.99470E-002, -1.89418E-005
2.19468E-002, -1.87226E-005
2.39578E-002, -1.85246E-005
2.59605E-002, -1.83376E-005
2.79452E-002, -1.81672E-005
2.99442E-002, -1.80063E-005
3.19385E-002, -1.78520E-005
3.39257E-002, -1.77115E-005
3.59322E-002, -1.75726E-005
3.79440E-002, -1.74497E-005
3.99476E-002, -1.73342E-005
4.19377E-002, -1.72245E-005
4.39392E-002, -1.71317E-005
4.59423E-002, -1.70362E-005
4.79550E-002, -1.69527E-005
4.99568E-002, -1.68745E-005
5.19562E-002, -1.68046E-005
5.39526E-002, -1.67478E-005
5.59498E-002, -1.66929E-005
5.79609E-002, -1.66494E-005
5.99298E-002, -1.66093E-005
6.19391E-002, -1.65729E-005
6.39506E-002, -1.65500E-005
6.59512E-002, -1.65231E-005
6.79418E-002, -1.65071E-005
6.99511E-002, -1.64960E-005
7.19425E-002, -1.64832E-005
7.39502E-002, -1.64839E-005
7.59700E-002, -1.64785E-005
7.79481E-002, -1.64798E-005
7.99382E-002, -1.64816E-005
8.19901E-002, -1.64761E-005
8.39878E-002, -1.64828E-005
8.59830E-002, -1.64872E-005
8.79823E-002, -1.64958E-005
8.99984E-002, -1.65019E-005
9.19881E-002, -1.65091E-005
9.39795E-002, -1.65183E-005
9.59760E-002, -1.65240E-005
9.79745E-002, -1.65326E-005
9.99847E-002, -1.65378E-005
1.01982E-001, -1.65433E-005
1.03986E-001, -1.65543E-005
1.05990E-001, -1.65586E-005
1.07982E-001, -1.65706E-005
1.09990E-001, -1.65749E-005
1.11982E-001, -1.65821E-005
1.13971E-001, -1.65892E-005
1.15997E-001, -1.65886E-005
1.17981E-001, -1.65966E-005
1.19984E-001, -1.65986E-005
1.21977E-001, -1.66030E-005
1.23986E-001, -1.66099E-005
1.25985E-001, -1.66116E-005
1.28000E-001, -1.66191E-005
1.29990E-001, -1.66148E-005
1.31975E-001, -1.66174E-005
1.33974E-001, -1.66170E-005
1.35973E-001, -1.66142E-005
1.37981E-001, -1.66176E-005
1.39971E-001, -1.66119E-005
1.41982E-001, -1.66132E-005
1.43983E-001, -1.66098E-005
1.45963E-001, -1.66042E-005
1.47968E-001, -1.65993E-005
1.49975E-001, -1.65846E-005
1.51989E-001, -1.65770E-005
1.54000E-001, -1.65633E-005
1.55990E-001, -1.65531E-005
1.57979E-001, -1.65439E-005
1.59973E-001, -1.65266E-005
1.61971E-001, -1.65114E-005
1.63968E-001, -1.64874E-005
1.65989E-001, -1.64619E-005
1.67975E-001, -1.64399E-005
1.69977E-001, -1.64105E-005
1.71975E-001, -1.63859E-005
1.73975E-001, -1.63526E-005
1.75966E-001, -1.63171E-005
1.77964E-001, -1.62823E-005
1.79971E-001, -1.62397E-005
1.81967E-001, -1.61940E-005
1.83970E-001, -1.61403E-005
1.85956E-001, -1.60895E-005
1.87950E-001, -1.60306E-005
1.89952E-001, -1.59652E-005
1.91970E-001, -1.59075E-005
1.93950E-001, -1.58321E-005
1.95945E-001, -1.57577E-005
1.97950E-001, -1.56739E-005
1.99953E-001, -1.55800E-005
2.01959E-001, -1.54842E-005
2.03935E-001, -1.53678E-005
2.05951E-001, -1.52583E-005
2.07940E-001, -1.51443E-005
2.09923E-001, -1.50180E-005
2.11935E-001, -1.48855E-005
2.13939E-001, -1.47356E-005
2.15933E-001, -1.45665E-005
2.17953E-001, -1.43824E-005
2.19940E-001, -1.41928E-005
2.21931E-001, -1.39955E-005
2.23945E-001, -1.37906E-005
2.25951E-001, -1.35671E-005
2.27952E-001, -1.33158E-005
2.29954E-001, -1.30565E-005
2.31948E-001, -1.27718E-005
2.33944E-001, -1.24660E-005
2.35924E-001, -1.21390E-005
2.37941E-001, -1.17867E-005
2.39932E-001, -1.14162E-005
2.41976E-001, -1.09985E-005
2.43995E-001, -1.05864E-005
2.45990E-001, -1.01499E-005
2.47984E-001, -9.67831E-006
2.49989E-001, -9.16757E-006
2.51968E-001, -8.61674E-006
2.53994E-001, -8.04207E-006
2.55995E-001, -7.43339E-006
2.57993E-001, -6.80288E-006
2.59984E-001, -6.14506E-006
2.61979E-001, -5.44568E-006
2.63980E-001, -4.71400E-006
2.65980E-001, -3.93762E-006
2.67957E-001, -3.13577E-006
2.69987E-001, -2.29220E-006
2.71968E-001, -1.41589E-006
2.73980E-001, -5.25477E-007
2.75990E-001, 4.68379E-007
2.77988E-001, 1.09462E-006
2.79974E-001, 2.33428E-006
2.81981E-001, 3.34360E-006
2.83970E-001, 4.36311E-006
2.85967E-001, 5.43050E-006
2.87971E-001, 6.51068E-006
2.89974E-001, 7.61717E-006
2.91977E-001, 8.73993E-006
2.93988E-001, 9.84734E-006
2.95985E-001, 1.09874E-005
2.97975E-001, 1.21119E-005
2.99968E-001, 1.32782E-005
3.01981E-001, 1.44523E-005
3.03964E-001, 1.56312E-005
3.05985E-001, 1.68215E-005
3.07982E-001, 1.79792E-005
3.09983E-001, 1.91591E-005
3.11968E-001, 2.03335E-005
3.13982E-001, 2.14848E-005
3.15976E-001, 2.26686E-005
3.17960E-001, 2.38205E-005
3.19993E-001, 2.49793E-005
3.21990E-001, 2.61067E-005
3.23974E-001, 2.72365E-005
3.25969E-001, 2.83588E-005
3.27969E-001, 2.94300E-005
3.29977E-001, 3.04857E-005
3.31964E-001, 3.15009E-005
3.33974E-001, 3.25201E-005
3.35978E-001, 3.35149E-005
3.37964E-001, 3.44494E-005
3.39980E-001, 3.53741E-005
3.41986E-001, 3.62278E-005
3.43963E-001, 3.70523E-005
3.45981E-001, 3.78325E-005
3.47987E-001, 3.85375E-005
3.49966E-001, 3.92284E-005
3.51971E-001, 3.98488E-005
3.53952E-001, 4.04272E-005
3.55955E-001, 4.09480E-005
3.57983E-001, 4.14025E-005
3.59971E-001, 4.17987E-005
3.61968E-001, 4.21190E-005
3.63957E-001, 4.23953E-005
3.65957E-001, 4.26152E-005
3.67956E-001, 4.27690E-005
3.69939E-001, 4.28691E-005
3.71970E-001, 4.28934E-005
3.73945E-001, 4.28769E-005
3.75965E-001, 4.28069E-005
3.77957E-001, 4.26715E-005
3.79951E-001, 4.25037E-005
3.81938E-001, 4.22641E-005
3.83972E-001, 4.19977E-005
3.85950E-001, 4.16900E-005
3.87953E-001, 4.13617E-005
3.89954E-001, 4.10071E-005
3.91953E-001, 4.06028E-005
3.93944E-001, 4.01850E-005
3.95918E-001, 3.97293E-005
3.97945E-001, 3.92678E-005
3.99943E-001, 3.87986E-005
4.02004E-001, 3.83502E-005
4.03990E-001, 3.78538E-005
4.05985E-001, 3.73448E-005
4.07984E-001, 3.68402E-005
4.09988E-001, 3.63301E-005
4.11986E-001, 3.58160E-005
4.13998E-001, 3.53157E-005
4.15992E-001, 3.48093E-005
4.17981E-001, 3.43132E-005
4.19983E-001, 3.38284E-005
4.22000E-001, 3.33445E-005
4.24001E-001, 3.28678E-005
4.26000E-001, 3.23954E-005
4.27986E-001, 3.19305E-005
4.29993E-001, 3.14763E-005
4.31981E-001, 3.10305E-005
4.34000E-001, 3.05919E-005
4.35994E-001, 3.01669E-005
4.37996E-001, 2.97493E-005
4.39992E-001, 2.93431E-005
4.41989E-001, 2.89498E-005
4.43974E-001, 2.85598E-005
4.45988E-001, 2.81707E-005
4.47999E-001, 2.77961E-005
4.49977E-001, 2.74319E-005
4.51980E-001, 2.70802E-005
4.53987E-001, 2.67381E-005
4.55986E-001, 2.64029E-005
4.58003E-001, 2.60717E-005
4.59997E-001, 2.57499E-005
4.61992E-001, 2.54345E-005
4.63994E-001, 2.51269E-005
4.65986E-001, 2.48314E-005
4.67992E-001, 2.45399E-005
4.69985E-001, 2.42582E-005
4.71982E-001, 2.39812E-005
4.74006E-001, 2.37115E-005
4.76000E-001, 2.34483E-005
4.77986E-001, 2.31913E-005
4.79988E-001, 2.29387E-005
4.81974E-001, 2.26915E-005
4.83991E-001, 2.24565E-005
4.85999E-001, 2.22247E-005
4.87988E-001, 2.19970E-005
4.89989E-001, 2.17755E-005
4.91973E-001, 2.15581E-005
4.93982E-001, 2.13473E-005
4.95963E-001, 2.11420E-005
4.97961E-001, 2.09384E-005
4.99986E-001, 2.07430E-005
5.01978E-001, 2.05509E-005
5.03971E-001, 2.03644E-005
5.05971E-001, 2.01860E-005
5.07961E-001, 2.00071E-005
5.09992E-001, 1.98323E-005
5.11997E-001, 1.96591E-005
5.13990E-001, 1.94908E-005
5.15989E-001, 1.93306E-005
5.17988E-001, 1.91768E-005
5.19980E-001, 1.90251E-005
5.21979E-001, 1.88758E-005
5.23963E-001, 1.87272E-005
5.25996E-001, 1.85828E-005
5.27985E-001, 1.84433E-005
5.29980E-001, 1.83098E-005
5.31980E-001, 1.81800E-005
5.33978E-001, 1.80514E-005
5.35989E-001, 1.79249E-005
5.37993E-001, 1.78022E-005
5.39984E-001, 1.76851E-005
5.41979E-001, 1.75679E-005
5.43986E-001, 1.74551E-005
5.45958E-001, 1.73436E-005
5.47973E-001, 1.72360E-005
5.49984E-001, 1.71326E-005
5.51969E-001, 1.70337E-005
5.53974E-001, 1.69374E-005
5.55970E-001, 1.68414E-005
5.57976E-001, 1.67476E-005
5.59969E-001, 1.66534E-005
5.61987E-001, 1.65639E-005
5.64047E-001, 1.64855E-005
5.66031E-001, 1.64000E-005
5.68029E-001, 1.63221E-005
5.70030E-001, 1.62431E-005
5.72009E-001, 1.61668E-005
5.74022E-001, 1.60928E-005
5.76043E-001, 1.60196E-005
5.78036E-001, 1.59464E-005
5.80031E-001, 1.58790E-005
5.82028E-001, 1.58144E-005
5.84037E-001, 1.57528E-005
5.86021E-001, 1.56916E-005
5.88030E-001, 1.56296E-005
5.90034E-001, 1.55691E-005
5.92037E-001, 1.55096E-005
5.94026E-001, 1.54529E-005
5.96029E-001, 1.53992E-005
5.98026E-001, 1.53468E-005
6.00023E-001, 1.53002E-005
6.02038E-001, 1.52570E-005
6.04025E-001, 1.52083E-005
6.06026E-001, 1.51640E-005
6.08016E-001, 1.51150E-005
6.10024E-001, 1.50707E-005
6.12022E-001, 1.50299E-005
6.14029E-001, 1.49911E-005
6.15985E-001, 1.49534E-005
6.17995E-001, 1.49198E-005
6.19988E-001, 1.48856E-005
6.21993E-001, 1.48535E-005
6.23980E-001, 1.48228E-005
6.25985E-001, 1.47952E-005
6.27988E-001, 1.47659E-005
6.29992E-001, 1.47413E-005
6.31969E-001, 1.47189E-005
6.33971E-001, 1.46971E-005
6.35967E-001, 1.46797E-005
6.37991E-001, 1.46648E-005
6.39986E-001, 1.46489E-005
6.41969E-001, 1.46349E-005
6.43971E-001, 1.46232E-005
6.45951E-001, 1.46134E-005
6.47954E-001, 1.46061E-005
6.49948E-001, 1.46015E-005
6.51956E-001, 1.45997E-005
6.53961E-001, 1.45971E-005
6.55964E-001, 1.45961E-005
6.57965E-001, 1.45891E-005
6.59968E-001, 1.45847E-005
6.61959E-001, 1.45774E-005
6.63986E-001, 1.45783E-005
6.65984E-001, 1.45773E-005
6.67987E-001, 1.45805E-005
6.69980E-001, 1.45807E-005
6.71985E-001, 1.45766E-005
6.73961E-001, 1.45701E-005
6.75976E-001, 1.45653E-005
6.77966E-001, 1.45610E-005
6.79987E-001, 1.45645E-005
6.81992E-001, 1.45653E-005
6.83979E-001, 1.45633E-005
6.85993E-001, 1.45643E-005
6.87996E-001, 1.45592E-005
6.89983E-001, 1.45548E-005
6.91989E-001, 1.45522E-005
6.93987E-001, 1.45517E-005
6.95976E-001, 1.45525E-005
6.97978E-001, 1.45540E-005
6.99968E-001, 1.45551E-005
7.01976E-001, 1.45557E-005
7.03982E-001, 1.45556E-005
7.05987E-001, 1.45560E-005
7.07978E-001, 1.45593E-005
7.09963E-001, 1.45600E-005
7.11958E-001, 1.45611E-005
7.13964E-001, 1.45639E-005
7.15981E-001, 1.45664E-005
7.17980E-001, 1.45737E-005
7.19991E-001, 1.45778E-005
7.21978E-001, 1.45818E-005
7.24043E-001, 1.45951E-005
7.26019E-001, 1.45930E-005
7.28029E-001, 1.45950E-005
7.30038E-001, 1.45973E-005
7.32032E-001, 1.46028E-005
7.34026E-001, 1.46116E-005
7.36034E-001, 1.46150E-005
7.38018E-001, 1.46215E-005
7.40030E-001, 1.46262E-005
7.42021E-001, 1.46289E-005
7.44037E-001, 1.46339E-005
7.46035E-001, 1.46364E-005
7.48022E-001, 1.46414E-005
7.50023E-001, 1.46460E-005
7.52022E-001, 1.46511E-005
7.54026E-001, 1.46560E-005
7.56031E-001, 1.46607E-005
7.58026E-001, 1.46652E-005
7.60030E-001, 1.46673E-005
7.62022E-001, 1.46706E-005
7.64016E-001, 1.46723E-005
7.66017E-001, 1.46746E-005
7.68034E-001, 1.46787E-005
7.70050E-001, 1.46765E-005
7.72052E-001, 1.46821E-005
7.74016E-001, 1.46820E-005
7.76021E-001, 1.46843E-005
7.78015E-001, 1.46851E-005
7.80006E-001, 1.46802E-005
7.82022E-001, 1.46793E-005
7.84028E-001, 1.46789E-005
7.86025E-001, 1.46741E-005
7.88025E-001, 1.46714E-005
7.90017E-001, 1.46656E-005
7.92013E-001, 1.46657E-005
7.94019E-001, 1.46570E-005
7.96020E-001, 1.46531E-005
7.98007E-001, 1.46451E-005
8.00010E-001, 1.46352E-005
8.02003E-001, 1.46261E-005
8.04024E-001, 1.46178E-005
8.06005E-001, 1.46093E-005
8.08021E-001, 1.46003E-005
8.10018E-001, 1.45901E-005
8.11993E-001, 1.45783E-005
8.14005E-001, 1.45608E-005
8.16024E-001, 1.45446E-005
8.18006E-001, 1.45301E-005
8.19990E-001, 1.45128E-005
8.21990E-001, 1.44988E-005
8.23981E-001, 1.44800E-005
8.25987E-001, 1.44646E-005
8.27984E-001, 1.44471E-005
8.29969E-001, 1.44293E-005
8.32000E-001, 1.44085E-005
8.33997E-001, 1.43840E-005
8.35985E-001, 1.43640E-005
8.37980E-001, 1.43406E-005
8.39985E-001, 1.43212E-005
8.41987E-001, 1.43000E-005
8.43992E-001, 1.42776E-005
8.45989E-001, 1.42543E-005
8.47991E-001, 1.42283E-005
8.49965E-001, 1.42042E-005
8.51982E-001, 1.41816E-005
8.53975E-001, 1.41547E-005
8.55969E-001, 1.41317E-005
8.57998E-001, 1.41067E-005
8.59992E-001, 1.40841E-005
8.61982E-001, 1.40640E-005
8.63985E-001, 1.40396E-005
8.65960E-001, 1.40194E-005
8.67975E-001, 1.39937E-005
8.69986E-001, 1.39697E-005
8.71986E-001, 1.39502E-005
8.73981E-001, 1.39311E-005
8.75968E-001, 1.39157E-005
8.77972E-001, 1.38979E-005
8.79969E-001, 1.38839E-005
8.81960E-001, 1.38689E-005
8.84036E-001, 1.38587E-005
8.86021E-001, 1.38445E-005
8.88028E-001, 1.38309E-005
8.90040E-001, 1.38209E-005
8.92029E-001, 1.38121E-005
8.94028E-001, 1.38091E-005
8.96033E-001, 1.38000E-005
8.98035E-001, 1.37937E-005
9.00015E-001, 1.37885E-005
9.02008E-001, 1.37810E-005
9.04013E-001, 1.37732E-005
9.06020E-001, 1.37691E-005
9.08028E-001, 1.37596E-005
9.10038E-001, 1.37580E-005
9.12035E-001, 1.37488E-005
9.14024E-001, 1.37412E-005
9.16031E-001, 1.37279E-005
9.18018E-001, 1.37117E-005
9.20029E-001, 1.36945E-005
9.22034E-001, 1.36757E-005
9.24036E-001, 1.36574E-005
9.26030E-001, 1.36389E-005
9.28021E-001, 1.36139E-005
9.30016E-001, 1.35897E-005
9.32013E-001, 1.35606E-005
9.34020E-001, 1.35305E-005
9.36042E-001, 1.34964E-005
9.38027E-001, 1.34624E-005
9.40015E-001, 1.34270E-005
9.42007E-001, 1.33883E-005
9.44011E-001, 1.33500E-005
9.46023E-001, 1.33094E-005
9.48035E-001, 1.32686E-005
9.50028E-001, 1.32282E-005
9.52026E-001, 1.31789E-005
9.54029E-001, 1.31334E-005
9.56015E-001, 1.30829E-005
9.58019E-001, 1.30361E-005
9.60028E-001, 1.29929E-005
9.62029E-001, 1.29474E-005
9.64020E-001, 1.29064E-005
9.66017E-001, 1.28623E-005
9.68030E-001, 1.28205E-005
9.70014E-001, 1.27761E-005
9.72036E-001, 1.27322E-005
9.74056E-001, 1.26931E-005
9.76039E-001, 1.26531E-005
9.78021E-001, 1.26204E-005
9.80024E-001, 1.25854E-005
9.82020E-001, 1.25529E-005
9.84023E-001, 1.25219E-005
9.86052E-001, 1.24819E-005
9.88036E-001, 1.24504E-005
9.90040E-001, 1.24147E-005
9.92028E-001, 1.23881E-005
9.94025E-001, 1.23622E-005
9.96009E-001, 1.23315E-005
9.98036E-001, 1.23033E-005
1.00003E+000, 1.22725E-005
9.98021E-001, 1.18190E-005
9.96013E-001, 1.14828E-005
9.94031E-001, 1.11874E-005
9.92010E-001, 1.09321E-005
9.90024E-001, 1.06927E-005
9.88028E-001, 1.04775E-005
9.86041E-001, 1.02807E-005
9.84028E-001, 1.00950E-005
9.82031E-001, 9.92808E-006
9.80024E-001, 9.76347E-006
9.78017E-001, 9.60830E-006
9.76047E-001, 9.46140E-006
9.74043E-001, 9.32108E-006
9.72036E-001, 9.18968E-006
9.70010E-001, 9.06488E-006
9.68020E-001, 8.94898E-006
9.66017E-001, 8.83826E-006
9.64040E-001, 8.72532E-006
9.62037E-001, 8.62047E-006
9.60041E-001, 8.51477E-006
9.58031E-001, 8.41704E-006
9.56018E-001, 8.32433E-006
9.54020E-001, 8.23584E-006
9.52021E-001, 8.14995E-006
9.50028E-001, 8.06346E-006
9.48020E-001, 7.97981E-006
9.46022E-001, 7.89868E-006
9.44010E-001, 7.81853E-006
9.42005E-001, 7.74403E-006
9.40014E-001, 7.66797E-006
9.38015E-001, 7.59820E-006
9.36034E-001, 7.52694E-006
9.34011E-001, 7.45948E-006
9.32036E-001, 7.39548E-006
9.30020E-001, 7.32896E-006
9.28017E-001, 7.26571E-006
9.26024E-001, 7.20173E-006
9.24021E-001, 7.14032E-006
9.22024E-001, 7.07848E-006
9.20024E-001, 7.01921E-006
9.18010E-001, 6.96248E-006
9.16006E-001, 6.90590E-006
9.14011E-001, 6.85071E-006
9.12029E-001, 6.79518E-006
9.10018E-001, 6.73771E-006
9.08009E-001, 6.68646E-006
9.06013E-001, 6.62871E-006
9.04008E-001, 6.57846E-006
9.02004E-001, 6.52465E-006
9.00020E-001, 6.47604E-006
8.98019E-001, 6.42754E-006
8.96035E-001, 6.37297E-006
8.94020E-001, 6.32465E-006
8.92012E-001, 6.27262E-006
8.90019E-001, 6.22535E-006
8.88027E-001, 6.17622E-006
8.86029E-001, 6.12640E-006
8.84039E-001, 6.08089E-006
8.81972E-001, 6.02616E-006
8.79971E-001, 5.98133E-006
8.77966E-001, 5.93495E-006
8.75970E-001, 5.88796E-006
8.73974E-001, 5.84326E-006
8.71985E-001, 5.79420E-006
8.69977E-001, 5.74713E-006
8.67983E-001, 5.70226E-006
8.65962E-001, 5.65132E-006
8.63989E-001, 5.61224E-006
8.61972E-001, 5.56488E-006
8.59981E-001, 5.51959E-006
8.57988E-001, 5.47578E-006
8.55980E-001, 5.42554E-006
8.53971E-001, 5.38322E-006
8.51980E-001, 5.33566E-006
8.49973E-001, 5.29241E-006
8.48001E-001, 5.24846E-006
8.45990E-001, 5.20075E-006
8.43988E-001, 5.15775E-006
8.41979E-001, 5.10930E-006
8.39971E-001, 5.06525E-006
8.37981E-001, 5.02051E-006
8.35991E-001, 4.97655E-006
8.33982E-001, 4.93492E-006
8.31988E-001, 4.88947E-006
8.29978E-001, 4.84375E-006
8.27975E-001, 4.79761E-006
8.25991E-001, 4.75166E-006
8.23985E-001, 4.71273E-006
8.21981E-001, 4.66576E-006
8.19985E-001, 4.62407E-006
8.18004E-001, 4.57875E-006
8.16016E-001, 4.53544E-006
8.14005E-001, 4.49398E-006
8.11993E-001, 4.44962E-006
8.10012E-001, 4.40667E-006
8.08023E-001, 4.36144E-006
8.06003E-001, 4.31626E-006
8.04010E-001, 4.27465E-006
8.01999E-001, 4.23252E-006
8.00012E-001, 4.19371E-006
7.98010E-001, 4.14814E-006
7.96019E-001, 4.10507E-006
7.94015E-001, 4.06522E-006
7.92012E-001, 4.01998E-006
7.90009E-001, 3.98136E-006
7.88036E-001, 3.93462E-006
7.86022E-001, 3.89381E-006
7.84026E-001, 3.85452E-006
7.82026E-001, 3.81508E-006
7.80003E-001, 3.77355E-006
7.78011E-001, 3.72870E-006
7.76011E-001, 3.68952E-006
7.74006E-001, 3.64696E-006
7.72035E-001, 3.60592E-006
7.70041E-001, 3.56808E-006
7.68050E-001, 3.52515E-006
7.65990E-001, 3.48660E-006
7.64017E-001, 3.44579E-006
7.62026E-001, 3.40589E-006
7.60022E-001, 3.36615E-006
7.58008E-001, 3.32457E-006
7.56030E-001, 3.28573E-006
7.54017E-001, 3.24166E-006
7.52017E-001, 3.20531E-006
7.50013E-001, 3.16509E-006
7.48019E-001, 3.12423E-006
7.46035E-001, 3.08629E-006
7.44039E-001, 3.04558E-006
7.42023E-001, 3.00607E-006
7.40028E-001, 2.96706E-006
7.38018E-001, 2.92793E-006
7.36034E-001, 2.88813E-006
7.34020E-001, 2.84674E-006
7.32020E-001, 2.80805E-006
7.30019E-001, 2.76994E-006
7.28014E-001, 2.72733E-006
7.26020E-001, 2.69124E-006
7.24022E-001, 2.64915E-006
7.21966E-001, 2.61167E-006
7.19979E-001, 2.57181E-006
7.17975E-001, 2.53087E-006
7.15973E-001, 2.49098E-006
7.13963E-001, 2.44734E-006
7.11966E-001, 2.41153E-006
7.09960E-001, 2.37064E-006
7.07977E-001, 2.33331E-006
7.05977E-001, 2.29646E-006
7.03982E-001, 2.25471E-006
7.01967E-001, 2.21695E-006
6.99962E-001, 2.17341E-006
6.97978E-001, 2.13568E-006
6.95964E-001, 2.09847E-006
6.93969E-001, 2.05388E-006
6.91988E-001, 2.01881E-006
6.89981E-001, 1.97548E-006
6.87976E-001, 1.94089E-006
6.85974E-001, 1.90135E-006
6.83970E-001, 1.85734E-006
6.81982E-001, 1.82101E-006
6.79981E-001, 1.77825E-006
6.77957E-001, 1.73898E-006
6.75977E-001, 1.69947E-006
6.73967E-001, 1.65855E-006
6.71992E-001, 1.62242E-006
6.69977E-001, 1.57987E-006
6.67987E-001, 1.54327E-006
6.65979E-001, 1.50309E-006
6.63979E-001, 1.46090E-006
6.61948E-001, 1.42512E-006
6.59956E-001, 1.38056E-006
6.57958E-001, 1.34174E-006
6.55976E-001, 1.30135E-006
6.53982E-001, 1.25930E-006
6.51972E-001, 1.22764E-006
6.49985E-001, 1.18111E-006
6.47987E-001, 1.14284E-006
6.45996E-001, 1.10104E-006
6.44004E-001, 1.05346E-006
6.42010E-001, 1.01910E-006
6.40008E-001, 9.79387E-007
6.38015E-001, 9.42341E-007
6.35977E-001, 9.02779E-007
6.33997E-001, 8.60230E-007
6.31978E-001, 8.20569E-007
6.29990E-001, 7.79316E-007
6.27983E-001, 7.29494E-007
6.25956E-001, 6.86938E-007
6.23976E-001, 6.51736E-007
6.21980E-001, 6.13778E-007
6.19974E-001, 5.73818E-007
6.17982E-001, 5.35504E-007
6.15980E-001, 4.87024E-007
6.14010E-001, 4.43719E-007
6.11999E-001, 4.03032E-007
6.10002E-001, 3.55352E-007
6.08015E-001, 3.19529E-007
6.06009E-001, 2.80459E-007
6.04013E-001, 2.41842E-007
6.02025E-001, 2.01908E-007
6.00006E-001, 1.55347E-007
5.98012E-001, 1.06014E-007
5.96014E-001, 5.86857E-008
5.94005E-001, 1.47651E-008
5.92027E-001, -2.51279E-008
5.90030E-001, -6.24958E-008
5.88042E-001, -1.02063E-007
5.86024E-001, -1.52262E-007
5.84028E-001, -1.96285E-007
5.82016E-001, -2.49419E-007
5.80040E-001, -2.96676E-007
5.78047E-001, -3.37339E-007
5.76039E-001, -3.85097E-007
5.74030E-001, -4.24277E-007
5.72035E-001, -4.72693E-007
5.70031E-001, -5.23909E-007
5.68034E-001, -5.68197E-007
5.66048E-001, -6.19748E-007
5.64042E-001, -6.70637E-007
5.61993E-001, -7.25486E-007
5.59970E-001, -7.72281E-007
5.57984E-001, -8.20847E-007
5.55985E-001, -8.69208E-007
5.53981E-001, -9.18255E-007
5.51989E-001, -9.68254E-007
5.49997E-001, -1.02002E-006
5.47988E-001, -1.07500E-006
5.45982E-001, -1.13039E-006
5.43991E-001, -1.17646E-006
5.41989E-001, -1.23442E-006
5.40005E-001, -1.28021E-006
5.38000E-001, -1.33579E-006
5.36000E-001, -1.38966E-006
5.33980E-001, -1.44217E-006
5.31983E-001, -1.49910E-006
5.29985E-001, -1.55253E-006
5.28007E-001, -1.61268E-006
5.25993E-001, -1.66671E-006
5.23972E-001, -1.71837E-006
5.21987E-001, -1.77425E-006
5.19969E-001, -1.82565E-006
5.17985E-001, -1.88336E-006
5.15996E-001, -1.93920E-006
5.13994E-001, -1.99628E-006
5.11986E-001, -2.05433E-006
5.09992E-001, -2.10750E-006
5.07971E-001, -2.16440E-006
5.05988E-001, -2.21594E-006
5.03989E-001, -2.26980E-006
5.01998E-001, -2.32945E-006
4.99990E-001, -2.38286E-006
4.97981E-001, -2.44524E-006
4.95981E-001, -2.50313E-006
4.93988E-001, -2.56059E-006
4.91974E-001, -2.61802E-006
4.90002E-001, -2.67633E-006
4.88003E-001, -2.73929E-006
4.85997E-001, -2.80008E-006
4.83977E-001, -2.86203E-006
4.81968E-001, -2.92433E-006
4.79986E-001, -2.98845E-006
4.77985E-001, -3.05711E-006
4.76008E-001, -3.12519E-006
4.74001E-001, -3.19575E-006
4.71994E-001, -3.26790E-006
4.69988E-001, -3.33911E-006
4.67985E-001, -3.41950E-006
4.65986E-001, -3.49945E-006
4.64002E-001, -3.58304E-006
4.61994E-001, -3.67044E-006
4.60012E-001, -3.75835E-006
4.58014E-001, -3.85614E-006
4.55993E-001, -3.94885E-006
4.54003E-001, -4.05587E-006
4.51991E-001, -4.16087E-006
4.49995E-001, -4.27386E-006
4.48004E-001, -4.39511E-006
4.45982E-001, -4.51730E-006
4.43967E-001, -4.64821E-006
4.41991E-001, -4.78327E-006
4.39994E-001, -4.92170E-006
4.37995E-001, -5.07286E-006
4.35981E-001, -5.22276E-006
4.33992E-001, -5.39099E-006
4.31973E-001, -5.56249E-006
4.29987E-001, -5.74051E-006
4.27979E-001, -5.92885E-006
4.25995E-001, -6.11854E-006
4.23998E-001, -6.32800E-006
4.22005E-001, -6.53112E-006
4.19981E-001, -6.75582E-006
4.17990E-001, -6.98761E-006
4.16002E-001, -7.22830E-006
4.14012E-001, -7.49041E-006
4.12000E-001, -7.74358E-006
4.10012E-001, -8.01738E-006
4.08019E-001, -8.29614E-006
4.06017E-001, -8.58467E-006
4.04017E-001, -8.90106E-006
4.02019E-001, -9.21000E-006
3.99969E-001, -9.57466E-006
3.97984E-001, -9.92478E-006
3.95945E-001, -1.02893E-005
3.93965E-001, -1.06727E-005
3.91961E-001, -1.10582E-005
3.89969E-001, -1.14614E-005
3.87967E-001, -1.18827E-005
3.85975E-001, -1.23362E-005
3.83983E-001, -1.28170E-005
3.81968E-001, -1.33118E-005
3.79974E-001, -1.38460E-005
3.77981E-001, -1.43743E-005
3.75975E-001, -1.49204E-005
3.73981E-001, -1.55072E-005
3.71990E-001, -1.61093E-005
3.69967E-001, -1.67788E-005
3.67978E-001, -1.74489E-005
3.65969E-001, -1.81378E-005
3.63974E-001, -1.88773E-005
3.61973E-001, -1.96208E-005
3.59966E-001, -2.04233E-005
3.57982E-001, -2.12143E-005
3.55959E-001, -2.20472E-005
3.53960E-001, -2.29074E-005
3.51974E-001, -2.37907E-005
3.49975E-001, -2.47299E-005
3.47981E-001, -2.56740E-005
3.45991E-001, -2.66609E-005
3.43967E-001, -2.76652E-005
3.41978E-001, -2.86604E-005
3.39981E-001, -2.96907E-005
3.37979E-001, -3.07010E-005
3.35991E-001, -3.17881E-005
3.34011E-001, -3.28922E-005
3.31995E-001, -3.39853E-005
3.29983E-001, -3.51146E-005
3.27977E-001, -3.62098E-005
3.25983E-001, -3.73317E-005
3.23983E-001, -3.84210E-005
3.22005E-001, -3.95070E-005
3.20006E-001, -4.06299E-005
3.17983E-001, -4.16969E-005
3.15974E-001, -4.28188E-005
3.13984E-001, -4.38986E-005
3.11976E-001, -4.49775E-005
3.09996E-001, -4.60376E-005
3.07986E-001, -4.69928E-005
3.05981E-001, -4.79719E-005
3.03972E-001, -4.88902E-005
3.01987E-001, -4.98275E-005
2.99986E-001, -5.07792E-005
2.97984E-001, -5.16277E-005
2.95988E-001, -5.24742E-005
2.93994E-001, -5.32233E-005
2.91984E-001, -5.39277E-005
2.89992E-001, -5.46111E-005
2.87973E-001, -5.51953E-005
2.85985E-001, -5.57811E-005
2.83996E-001, -5.63432E-005
2.81995E-001, -5.68574E-005
2.79979E-001, -5.72928E-005
2.77965E-001, -5.76495E-005
2.75966E-001, -5.79648E-005
2.73977E-001, -5.82308E-005
2.71973E-001, -5.84729E-005
2.69982E-001, -5.86345E-005
2.67959E-001, -5.87624E-005
2.65970E-001, -5.88767E-005
2.63980E-001, -5.89213E-005
2.61986E-001, -5.89508E-005
2.59985E-001, -5.88855E-005
2.57989E-001, -5.87912E-005
2.55992E-001, -5.86703E-005
2.54002E-001, -5.84817E-005
2.51978E-001, -5.83004E-005
2.49990E-001, -5.80796E-005
2.47976E-001, -5.78264E-005
2.45994E-001, -5.75517E-005
2.43996E-001, -5.72268E-005
2.41977E-001, -5.68939E-005
2.39946E-001, -5.65668E-005
2.37943E-001, -5.61823E-005
2.35937E-001, -5.57801E-005
2.33942E-001, -5.53538E-005
2.31956E-001, -5.49391E-005
2.29956E-001, -5.44999E-005
2.27947E-001, -5.40702E-005
2.25938E-001, -5.36198E-005
2.23938E-001, -5.31517E-005
2.21938E-001, -5.26919E-005
2.19946E-001, -5.22236E-005
2.17954E-001, -5.17726E-005
2.15949E-001, -5.13212E-005
2.13945E-001, -5.08576E-005
2.11929E-001, -5.04079E-005
2.09924E-001, -4.99452E-005
2.07933E-001, -4.94925E-005
2.05957E-001, -4.90499E-005
2.03943E-001, -4.86076E-005
2.01954E-001, -4.81825E-005
1.99949E-001, -4.77576E-005
1.97961E-001, -4.73311E-005
1.95952E-001, -4.69200E-005
1.93969E-001, -4.65170E-005
1.91982E-001, -4.61157E-005
1.89951E-001, -4.57247E-005
1.87961E-001, -4.53408E-005
1.85959E-001, -4.49683E-005
1.83971E-001, -4.46020E-005
1.81977E-001, -4.42399E-005
1.79982E-001, -4.38854E-005
1.77973E-001, -4.35418E-005
1.75959E-001, -4.32029E-005
1.73986E-001, -4.28753E-005
1.71977E-001, -4.25498E-005
1.69977E-001, -4.22342E-005
1.67979E-001, -4.19273E-005
1.65998E-001, -4.16285E-005
1.63976E-001, -4.13350E-005
1.61972E-001, -4.10518E-005
1.59972E-001, -4.07694E-005
1.57982E-001, -4.04926E-005
1.55983E-001, -4.02269E-005
1.54000E-001, -3.99665E-005
1.51979E-001, -3.97109E-005
1.49970E-001, -3.94663E-005
1.47974E-001, -3.92271E-005
1.45975E-001, -3.89898E-005
1.43983E-001, -3.87622E-005
1.41994E-001, -3.85346E-005
1.39971E-001, -3.83153E-005
1.37983E-001, -3.81056E-005
1.35988E-001, -3.78955E-005
1.33989E-001, -3.76967E-005
1.31979E-001, -3.75048E-005
1.29987E-001, -3.73103E-005
1.27991E-001, -3.71307E-005
1.25985E-001, -3.69486E-005
1.23975E-001, -3.67698E-005
1.21981E-001, -3.66022E-005
1.19992E-001, -3.64334E-005
1.17978E-001, -3.62769E-005
1.16002E-001, -3.61232E-005
1.13973E-001, -3.59726E-005
1.11994E-001, -3.58310E-005
1.09997E-001, -3.56909E-005
1.07989E-001, -3.55542E-005
1.05998E-001, -3.54205E-005
1.04001E-001, -3.52938E-005
1.02002E-001, -3.51732E-005
9.99876E-002, -3.50624E-005
9.79857E-002, -3.49523E-005
9.59793E-002, -3.48430E-005
9.39841E-002, -3.47419E-005
9.19877E-002, -3.46387E-005
9.00000E-002, -3.45464E-005
8.79807E-002, -3.44617E-005
8.59772E-002, -3.43734E-005
8.39895E-002, -3.42995E-005
8.19860E-002, -3.42234E-005
7.99366E-002, -3.41546E-005
7.79410E-002, -3.40909E-005
7.59612E-002, -3.40257E-005
7.39344E-002, -3.39711E-005
7.19192E-002, -3.39221E-005
6.99361E-002, -3.38703E-005
6.79334E-002, -3.38264E-005
6.59278E-002, -3.37894E-005
6.39410E-002, -3.37561E-005
6.19270E-002, -3.37301E-005
5.99160E-002, -3.37150E-005
5.79229E-002, -3.36941E-005
5.59357E-002, -3.36834E-005
5.39405E-002, -3.36797E-005
5.19486E-002, -3.36773E-005
4.99539E-002, -3.36903E-005
4.79579E-002, -3.37096E-005
4.59377E-002, -3.37345E-005
4.39421E-002, -3.37723E-005
4.19402E-002, -3.38038E-005
3.99567E-002, -3.38526E-005
3.79486E-002, -3.39142E-005
3.59422E-002, -3.39793E-005
3.39512E-002, -3.40568E-005
3.19535E-002, -3.41358E-005
2.99575E-002, -3.42319E-005
2.79590E-002, -3.43314E-005
2.59646E-002, -3.44416E-005
2.39686E-002, -3.45566E-005
2.19568E-002, -3.46791E-005
1.99574E-002, -3.48079E-005
1.79527E-002, -3.49378E-005
1.59592E-002, -3.50794E-005
1.39540E-002, -3.52288E-005
1.19626E-002, -3.53771E-005
9.94110E-003, -3.55338E-005
7.94635E-003, -3.56886E-005
5.94074E-003, -3.58515E-005
3.94306E-003, -3.60150E-005
1.94747E-003, -3.61901E-005
-3.76948E-005, -3.63603E-005
-2.03579E-003, -3.65285E-005
-4.05849E-003, -3.67097E-005
-6.04616E-003, -3.68964E-005
-8.04592E-003, -3.71057E-005
-1.00365E-002, -3.73121E-005
-1.20475E-002, -3.75280E-005
-1.40598E-002, -3.77487E-005
-1.60587E-002, -3.79650E-005
-1.80464E-002, -3.82120E-005
-2.00516E-002, -3.84742E-005
-2.20351E-002, -3.87546E-005
-2.40415E-002, -3.90594E-005
-2.60125E-002, -3.93750E-005
-2.80502E-002, -3.97007E-005
-3.00346E-002, -4.00555E-005
-3.20247E-002, -4.04272E-005
-3.40274E-002, -4.08368E-005
-3.60197E-002, -4.12391E-005
-3.80123E-002, -4.16767E-005
-4.00325E-002, -4.21713E-005
-4.20344E-002, -4.27073E-005
-4.40283E-002, -4.32451E-005
-4.60368E-002, -4.37772E-005
-4.80170E-002, -4.43386E-005
-5.00105E-002, -4.49167E-005
-5.20111E-002, -4.55544E-005
-5.40251E-002, -4.62046E-005
-5.60307E-002, -4.69086E-005
-5.80292E-002, -4.76249E-005
-6.00310E-002, -4.83030E-005
-6.20229E-002, -4.90605E-005
-6.40114E-002, -4.98046E-005
-6.60157E-002, -5.05598E-005
-6.80372E-002, -5.13478E-005
-7.00190E-002, -5.20823E-005
-7.20200E-002, -5.29081E-005
-7.40210E-002, -5.37053E-005
-7.60099E-002, -5.45111E-005
-7.80130E-002, -5.53676E-005
-8.00341E-002, -5.61398E-005
-8.20651E-002, -5.69767E-005
-8.40728E-002, -5.77067E-005
-8.60634E-002, -5.84490E-005
-8.80586E-002, -5.92027E-005
-9.00500E-002, -5.99395E-005
-9.20852E-002, -6.06826E-005
-9.40645E-002, -6.13718E-005
-9.60530E-002, -6.20082E-005
-9.80611E-002, -6.26101E-005
-1.00057E-001, -6.31668E-005
-1.02058E-001, -6.37269E-005
-1.04079E-001, -6.42285E-005
-1.06081E-001, -6.47216E-005
-1.08072E-001, -6.51555E-005
-1.10073E-001, -6.55282E-005
-1.12062E-001, -6.58842E-005
-1.14075E-001, -6.61593E-005
-1.16085E-001, -6.64341E-005
-1.18074E-001, -6.66164E-005
-1.20085E-001, -6.67510E-005
-1.22060E-001, -6.68651E-005
-1.24068E-001, -6.69237E-005
-1.26060E-001, -6.69757E-005
-1.28066E-001, -6.69753E-005
-1.30084E-001, -6.69109E-005
-1.32092E-001, -6.67960E-005
-1.34080E-001, -6.66125E-005
-1.36091E-001, -6.64343E-005
-1.38072E-001, -6.62448E-005
-1.40072E-001, -6.60523E-005
-1.42076E-001, -6.58446E-005
-1.44063E-001, -6.55562E-005
-1.46070E-001, -6.52215E-005
-1.48076E-001, -6.48507E-005
-1.50063E-001, -6.45103E-005
-1.52049E-001, -6.41792E-005
-1.54047E-001, -6.38374E-005
-1.56067E-001, -6.34998E-005
-1.58067E-001, -6.30960E-005
-1.60068E-001, -6.26842E-005
-1.62062E-001, -6.22829E-005
-1.64068E-001, -6.18785E-005
-1.66055E-001, -6.14919E-005
-1.68078E-001, -6.10946E-005
-1.70071E-001, -6.06976E-005
-1.72057E-001, -6.02992E-005
-1.74068E-001, -5.98939E-005
-1.76052E-001, -5.95053E-005
-1.78055E-001, -5.91143E-005
-1.80055E-001, -5.87221E-005
-1.82065E-001, -5.83282E-005
-1.84073E-001, -5.79388E-005
-1.86051E-001, -5.75665E-005
-1.88053E-001, -5.71982E-005
-1.90047E-001, -5.68483E-005
-1.92048E-001, -5.65013E-005
-1.94057E-001, -5.61390E-005
-1.96064E-001, -5.57906E-005
-1.98051E-001, -5.54337E-005
-2.00063E-001, -5.50977E-005
-2.02044E-001, -5.47731E-005
-2.04041E-001, -5.44558E-005
-2.06040E-001, -5.41471E-005
-2.08038E-001, -5.38357E-005
-2.10028E-001, -5.35345E-005
-2.12036E-001, -5.32345E-005
-2.14022E-001, -5.29318E-005
-2.16017E-001, -5.26514E-005
-2.18009E-001, -5.23679E-005
-2.20029E-001, -5.20984E-005
-2.22024E-001, -5.18363E-005
-2.24022E-001, -5.15738E-005
-2.26015E-001, -5.13255E-005
-2.28019E-001, -5.10709E-005
-2.30012E-001, -5.08199E-005
-2.32014E-001, -5.05713E-005
-2.34014E-001, -5.03306E-005
-2.36019E-001, -5.01088E-005
-2.38020E-001, -4.98831E-005
-2.40004E-001, -4.96694E-005
-2.42055E-001, -4.94570E-005
-2.44071E-001, -4.92370E-005
-2.46059E-001, -4.90307E-005
-2.48059E-001, -4.88146E-005
-2.50057E-001, -4.86210E-005
-2.52068E-001, -4.84250E-005
-2.54054E-001, -4.82339E-005
-2.56053E-001, -4.80550E-005
-2.58056E-001, -4.78644E-005
-2.60066E-001, -4.76911E-005
-2.62057E-001, -4.75051E-005
-2.64051E-001, -4.73250E-005
-2.66047E-001, -4.71563E-005
-2.68042E-001, -4.69830E-005
-2.70064E-001, -4.68260E-005
-2.72063E-001, -4.66668E-005
-2.74058E-001, -4.65160E-005
-2.76066E-001, -4.63668E-005
-2.78060E-001, -4.62021E-005
-2.80040E-001, -4.60528E-005
-2.82048E-001, -4.58924E-005
-2.84057E-001, -4.57470E-005
-2.86060E-001, -4.56116E-005
-2.88048E-001, -4.54752E-005
-2.90045E-001, -4.53536E-005
-2.92035E-001, -4.52095E-005
-2.94046E-001, -4.50748E-005
-2.96052E-001, -4.49336E-005
-2.98056E-001, -4.47929E-005
-3.00059E-001, -4.46694E-005
-3.02062E-001, -4.45426E-005
-3.04056E-001, -4.44326E-005
-3.06040E-001, -4.43199E-005
-3.08038E-001, -4.42065E-005
-3.10059E-001, -4.40873E-005
-3.12057E-001, -4.39522E-005
-3.14050E-001, -4.38328E-005
-3.16048E-001, -4.37123E-005
-3.18043E-001, -4.36050E-005
-3.20044E-001, -4.35119E-005
-3.22054E-001, -4.34098E-005
-3.24053E-001, -4.33099E-005
-3.26050E-001, -4.31912E-005
-3.28056E-001, -4.30835E-005
-3.30049E-001, -4.29789E-005
-3.32037E-001, -4.28684E-005
-3.34047E-001, -4.27792E-005
-3.36055E-001, -4.26789E-005
-3.38063E-001, -4.25892E-005
-3.40050E-001, -4.24984E-005
-3.42047E-001, -4.23976E-005
-3.44039E-001, -4.23075E-005
-3.46038E-001, -4.22038E-005
-3.48040E-001, -4.21122E-005
-3.50051E-001, -4.20212E-005
-3.52033E-001, -4.19283E-005
-3.54050E-001, -4.18562E-005
-3.56032E-001, -4.17762E-005
-3.58034E-001, -4.16921E-005
-3.60049E-001, -4.15975E-005
-3.62057E-001, -4.15010E-005
-3.64043E-001, -4.14153E-005
-3.66051E-001, -4.13408E-005
-3.68036E-001, -4.12681E-005
-3.70044E-001, -4.11883E-005
-3.72034E-001, -4.11251E-005
-3.74058E-001, -4.10442E-005
-3.76053E-001, -4.09608E-005
-3.78041E-001, -4.08839E-005
-3.80050E-001, -4.07810E-005
-3.82038E-001, -4.07180E-005
-3.84037E-001, -4.06576E-005
-3.86049E-001, -4.05866E-005
-3.88065E-001, -4.05411E-005
-3.90055E-001, -4.04555E-005
-3.92066E-001, -4.03836E-005
-3.94044E-001, -4.03135E-005
-3.96033E-001, -4.02187E-005
-3.98056E-001, -4.01585E-005
-4.00047E-001, -4.00988E-005
-4.02095E-001, -4.00314E-005
-4.04086E-001, -3.99863E-005
-4.06093E-001, -3.99338E-005
-4.08082E-001, -3.98700E-005
-4.10063E-001, -3.98046E-005
-4.12084E-001, -3.97195E-005
-4.14066E-001, -3.96337E-005
-4.16071E-001, -3.95888E-005
-4.18063E-001, -3.95336E-005
-4.20057E-001, -3.94863E-005
-4.22049E-001, -3.94624E-005
-4.24079E-001, -3.93775E-005
-4.26076E-001, -3.93236E-005
-4.28061E-001, -3.92636E-005
-4.30064E-001, -3.91754E-005
-4.32064E-001, -3.91344E-005
-4.34058E-001, -3.90738E-005
-4.36034E-001, -3.90285E-005
-4.38067E-001, -3.90031E-005
-4.40059E-001, -3.89396E-005
-4.42060E-001, -3.88986E-005
-4.44049E-001, -3.88408E-005
-4.46055E-001, -3.87718E-005
-4.48043E-001, -3.87137E-005
-4.50070E-001, -3.86548E-005
-4.52056E-001, -3.86137E-005
-4.54059E-001, -3.85792E-005
-4.56054E-001, -3.85530E-005
-4.58052E-001, -3.85039E-005
-4.60043E-001, -3.84500E-005
-4.62040E-001, -3.83973E-005
-4.64055E-001, -3.83264E-005
-4.66056E-001, -3.82819E-005
-4.68047E-001, -3.82289E-005
-4.70051E-001, -3.81915E-005
-4.72032E-001, -3.81761E-005
-4.74039E-001, -3.81320E-005
-4.76051E-001, -3.81021E-005
-4.78044E-001, -3.80430E-005
-4.80053E-001, -3.79830E-005
-4.82039E-001, -3.79322E-005
-4.84046E-001, -3.78746E-005
-4.86033E-001, -3.78457E-005
-4.88042E-001, -3.78158E-005
-4.90048E-001, -3.77921E-005
-4.92045E-001, -3.77677E-005
-4.94037E-001, -3.77178E-005
-4.96039E-001, -3.76723E-005
-4.98023E-001, -3.76034E-005
-5.00016E-001, -3.75566E-005
-5.02048E-001, -3.75198E-005
-5.04027E-001, -3.74881E-005
-5.06038E-001, -3.74780E-005
-5.08039E-001, -3.74463E-005
-5.10027E-001, -3.74204E-005
-5.12034E-001, -3.73748E-005
-5.14037E-001, -3.73161E-005
-5.16043E-001, -3.72668E-005
-5.18035E-001, -3.72085E-005
-5.20043E-001, -3.71866E-005
-5.22039E-001, -3.71666E-005
-5.24037E-001, -3.71507E-005
-5.26061E-001, -3.71428E-005
-5.28052E-001, -3.70979E-005
-5.30055E-001, -3.70511E-005
-5.32056E-001, -3.69851E-005
-5.34052E-001, -3.69346E-005
-5.36037E-001, -3.69067E-005
-5.38019E-001, -3.68819E-005
-5.40048E-001, -3.68824E-005
-5.42047E-001, -3.68619E-005
-5.44058E-001, -3.68413E-005
-5.46043E-001, -3.68012E-005
-5.48032E-001, -3.67389E-005
-5.50028E-001, -3.66954E-005
-5.52047E-001, -3.66428E-005
-5.54040E-001, -3.66241E-005
-5.56029E-001, -3.66164E-005
-5.58036E-001, -3.66016E-005
-5.60040E-001, -3.66001E-005
-5.62033E-001, -3.65603E-005
-5.64080E-001, -3.65213E-005
-5.66088E-001, -3.64682E-005
-5.68100E-001, -3.64159E-005
-5.70091E-001, -3.63944E-005
-5.72106E-001, -3.63649E-005
-5.74089E-001, -3.63705E-005
-5.76084E-001, -3.63661E-005
-5.78089E-001, -3.63451E-005
-5.80080E-001, -3.63169E-005
-5.82084E-001, -3.62564E-005
-5.84085E-001, -3.62129E-005
-5.86082E-001, -3.61732E-005
-5.88064E-001, -3.61460E-005
-5.90082E-001, -3.61497E-005
-5.92090E-001, -3.61448E-005
-5.94087E-001, -3.61480E-005
-5.96082E-001, -3.61089E-005
-5.98074E-001, -3.60671E-005
-6.00062E-001, -3.60282E-005
-6.02052E-001, -3.59825E-005
-6.04078E-001, -3.59702E-005
-6.06073E-001, -3.59578E-005
-6.08080E-001, -3.59631E-005
-6.10071E-001, -3.59432E-005
-6.12067E-001, -3.59130E-005
-6.14074E-001, -3.58951E-005
-6.16058E-001, -3.58508E-005
-6.18045E-001, -3.58259E-005
-6.20044E-001, -3.58061E-005
-6.22050E-001, -3.57853E-005
-6.24044E-001, -3.57780E-005
-6.26046E-001, -3.57475E-005
-6.28034E-001, -3.57364E-005
-6.30063E-001, -3.57171E-005
-6.32055E-001, -3.56965E-005
-6.34061E-001, -3.56829E-005
-6.36038E-001, -3.56496E-005
-6.38045E-001, -3.56323E-005
-6.40021E-001, -3.56125E-005
-6.42031E-001, -3.56002E-005
-6.44043E-001, -3.55872E-005
-6.46032E-001, -3.55627E-005
-6.48043E-001, -3.55574E-005
-6.50044E-001, -3.55303E-005
-6.52035E-001, -3.55154E-005
-6.54065E-001, -3.55120E-005
-6.56038E-001, -3.54876E-005
-6.58032E-001, -3.54758E-005
-6.60027E-001, -3.54385E-005
-6.62022E-001, -3.54232E-005
-6.64030E-001, -3.54146E-005
-6.66014E-001, -3.54009E-005
-6.68033E-001, -3.54058E-005
-6.70038E-001, -3.53877E-005
-6.72032E-001, -3.53738E-005
-6.74039E-001, -3.53499E-005
-6.76026E-001, -3.53261E-005
-6.78024E-001, -3.53152E-005
-6.80050E-001, -3.52924E-005
-6.82036E-001, -3.52964E-005
-6.84025E-001, -3.52932E-005
-6.86028E-001, -3.52773E-005
-6.88030E-001, -3.52849E-005
-6.90027E-001, -3.52533E-005
-6.92017E-001, -3.52610E-005
-6.94031E-001, -3.52209E-005
-6.96035E-001, -3.51873E-005
-6.98035E-001, -3.52011E-005
-7.00025E-001, -3.51953E-005
-7.02023E-001, -3.51998E-005
-7.04014E-001, -3.51979E-005
-7.06037E-001, -3.51894E-005
-7.08020E-001, -3.51672E-005
-7.10023E-001, -3.51289E-005
-7.12025E-001, -3.51100E-005
-7.14030E-001, -3.50942E-005
-7.16020E-001, -3.51109E-005
-7.18016E-001, -3.51139E-005
-7.20017E-001, -3.51055E-005
-7.22032E-001, -3.51106E-005
-7.24072E-001, -3.50824E-005
-7.26072E-001, -3.50641E-005
-7.28072E-001, -3.50313E-005
-7.30058E-001, -3.50152E-005
-7.32086E-001, -3.50267E-005
-7.34086E-001, -3.50288E-005
-7.36085E-001, -3.50417E-005
-7.38070E-001, -3.50344E-005
-7.40074E-001, -3.50247E-005
-7.42068E-001, -3.50093E-005
-7.44077E-001, -3.49714E-005
-7.46092E-001, -3.49618E-005
-7.48088E-001, -3.49446E-005
-7.50083E-001, -3.49541E-005
-7.52091E-001, -3.49756E-005
-7.54077E-001, -3.49748E-005
-7.56053E-001, -3.49800E-005
-7.58081E-001, -3.49495E-005
-7.60081E-001, -3.49219E-005
-7.62091E-001, -3.49057E-005
-7.64069E-001, -3.48938E-005
-7.66076E-001, -3.49129E-005
-7.68065E-001, -3.49124E-005
-7.70070E-001, -3.49244E-005
-7.72092E-001, -3.49269E-005
-7.74081E-001, -3.49116E-005
-7.76081E-001, -3.49109E-005
-7.78057E-001, -3.48820E-005
-7.80061E-001, -3.48737E-005
-7.82059E-001, -3.48666E-005
-7.84061E-001, -3.48715E-005
-7.86067E-001, -3.48985E-005
-7.88061E-001, -3.49046E-005
-7.90083E-001, -3.49173E-005
-7.92067E-001, -3.48971E-005
-7.94066E-001, -3.48720E-005
-7.96068E-001, -3.48661E-005
-7.98074E-001, -3.48516E-005
-8.00077E-001, -3.48734E-005
-8.02065E-001, -3.48838E-005
-8.04059E-001, -3.48973E-005
-8.06040E-001, -3.49115E-005
-8.08069E-001, -3.48976E-005
-8.10062E-001, -3.48986E-005
-8.12063E-001, -3.48794E-005
-8.14064E-001, -3.48728E-005
-8.16080E-001, -3.48765E-005
-8.18069E-001, -3.48857E-005
-8.20043E-001, -3.49123E-005
-8.22050E-001, -3.49191E-005
-8.24045E-001, -3.49278E-005
-8.26032E-001, -3.49210E-005
-8.28028E-001, -3.49033E-005
-8.30022E-001, -3.49063E-005
-8.32004E-001, -3.48955E-005
-8.34034E-001, -3.49083E-005
-8.36029E-001, -3.49218E-005
-8.38024E-001, -3.49354E-005
-8.40020E-001, -3.49600E-005
-8.42022E-001, -3.49503E-005
-8.44009E-001, -3.49498E-005
-8.46009E-001, -3.49323E-005
-8.48027E-001, -3.49238E-005
-8.50020E-001, -3.49379E-005
-8.52012E-001, -3.49452E-005
-8.54006E-001, -3.49770E-005
-8.56002E-001, -3.49797E-005
-8.57995E-001, -3.49824E-005
-8.60032E-001, -3.49837E-005
-8.62018E-001, -3.49704E-005
-8.64011E-001, -3.49793E-005
-8.66019E-001, -3.49711E-005
-8.68022E-001, -3.49832E-005
-8.70003E-001, -3.49989E-005
-8.72026E-001, -3.50069E-005
-8.74029E-001, -3.50315E-005
-8.76019E-001, -3.50243E-005
-8.78011E-001, -3.50312E-005
-8.80020E-001, -3.50262E-005
-8.81993E-001, -3.50182E-005
-8.84056E-001, -3.50436E-005
-8.86071E-001, -3.50448E-005
-8.88056E-001, -3.50675E-005
-8.90042E-001, -3.50726E-005
-8.92060E-001, -3.50748E-005
-8.94047E-001, -3.50921E-005
-8.96062E-001, -3.50867E-005
-8.98063E-001, -3.51058E-005
-9.00073E-001, -3.51060E-005
-9.02050E-001, -3.51137E-005
-9.04055E-001, -3.51356E-005
-9.06061E-001, -3.51368E-005
-9.08056E-001, -3.51652E-005
-9.10046E-001, -3.51695E-005
-9.12065E-001, -3.51804E-005
-9.14055E-001, -3.51852E-005
-9.16057E-001, -3.51810E-005
-9.18060E-001, -3.52117E-005
-9.20045E-001, -3.52216E-005
-9.22043E-001, -3.52489E-005
-9.24045E-001, -3.52715E-005
-9.26057E-001, -3.52755E-005
-9.28063E-001, -3.52966E-005
-9.30043E-001, -3.52915E-005
-9.32036E-001, -3.53072E-005
-9.34043E-001, -3.53223E-005
-9.36063E-001, -3.53406E-005
-9.38063E-001, -3.53767E-005
-9.40042E-001, -3.53855E-005
-9.42048E-001, -3.54148E-005
-9.44053E-001, -3.54261E-005
-9.46048E-001, -3.54333E-005
-9.48038E-001, -3.54609E-005
-9.50055E-001, -3.54643E-005
-9.52055E-001, -3.54955E-005
-9.54054E-001, -3.55173E-005
-9.56058E-001, -3.55439E-005
-9.58045E-001, -3.55776E-005
-9.60039E-001, -3.55900E-005
-9.62073E-001, -3.56171E-005
-9.64044E-001, -3.56199E-005
-9.66051E-001, -3.56389E-005
-9.68050E-001, -3.56693E-005
-9.70034E-001, -3.56927E-005
-9.72042E-001, -3.57404E-005
-9.74029E-001, -3.57566E-005
-9.76039E-001, -3.57840E-005
-9.78048E-001, -3.58033E-005
-9.80036E-001, -3.58173E-005
-9.82045E-001, -3.58565E-005
-9.84038E-001, -3.58695E-005
-9.86032E-001, -3.59053E-005
-9.88051E-001, -3.59354E-005
-9.90036E-001, -3.59664E-005
-9.92040E-001, -3.60130E-005
-9.94039E-001, -3.60302E-005
-9.96027E-001, -3.60624E-005
-9.98023E-001, -3.60775E-005
-1.00003E+000, -3.61003E-005
##END=$$ End of the data block
