##TITLE=Spectrum
##JCAMP-DX=5.00 $$ chemotion-converter-app (1.5.0)
##DATA TYPE=THERMOGRAVIMETRIC ANALYSIS
##DATA CLASS=XYPOINTS
##ORIGIN=
##OWNER=
##XUNITS=DEGREES CELSIUS
##YUNITS=Weight %
##FIRSTX=29.83
##LASTX=29.68
##MINX=29.68
##MAXX=30.19
##MINY=99.99
##MAXY=99.99
##NPOINTS=1800
##FIRSTY=99.99
##XUNITS=DEGREES CELSIUS
##YUNITS=Weight %
##XYPOINTS=(XY..XY)
29.83, 99.99
29.83, 99.99
29.83, 99.99
29.83, 99.99
29.83, 99.99
29.83, 99.99
29.83, 99.99
29.83, 99.99
29.83, 99.99
29.84, 99.99
29.84, 99.99
29.84, 99.99
29.84, 99.99
29.84, 99.99
29.84, 99.99
29.84, 99.99
29.84, 99.99
29.84, 99.99
29.84, 99.99
29.85, 99.99
29.85, 99.99
29.85, 99.99
29.85, 99.99
29.85, 99.99
29.85, 99.99
29.85, 99.99
29.85, 99.99
29.85, 99.99
29.85, 99.99
29.86, 99.99
29.86, 99.99
29.86, 99.99
29.86, 99.99
29.86, 99.99
29.86, 99.99
29.86, 99.99
29.86, 99.99
29.86, 99.99
29.86, 99.99
29.87, 99.99
29.87, 99.99
29.87, 99.99
29.87, 99.99
29.87, 99.99
29.87, 99.99
29.87, 99.99
29.87, 99.99
29.87, 99.99
29.87, 99.99
29.88, 99.99
29.88, 99.99
29.88, 99.99
29.88, 99.99
29.88, 99.99
29.88, 99.99
29.88, 99.99
29.88, 99.99
29.88, 99.99
29.88, 99.99
29.88, 99.99
29.89, 99.99
29.89, 99.99
29.89, 99.99
29.89, 99.99
29.89, 99.99
29.89, 99.99
29.89, 99.99
29.89, 99.99
29.89, 99.99
29.89, 99.99
29.9, 99.99
29.9, 99.99
29.9, 99.99
29.9, 99.99
29.9, 99.99
29.9, 99.99
29.9, 99.99
29.9, 99.99
29.9, 99.99
29.9, 99.99
29.9, 99.99
29.91, 99.99
29.91, 99.99
29.91, 99.99
29.91, 99.99
29.91, 99.99
29.91, 99.99
29.91, 99.99
29.91, 99.99
29.91, 99.99
29.91, 99.99
29.91, 99.99
29.92, 99.99
29.92, 99.99
29.92, 99.99
29.92, 99.99
29.92, 99.99
29.92, 99.99
29.92, 99.99
29.92, 99.99
29.92, 99.99
29.92, 99.99
29.92, 99.99
29.93, 99.99
29.93, 99.99
29.93, 99.99
29.93, 99.99
29.93, 99.99
29.93, 99.99
29.93, 99.99
29.93, 99.99
29.93, 99.99
29.93, 99.99
29.93, 99.99
29.94, 99.99
29.94, 99.99
29.94, 99.99
29.94, 99.99
29.94, 99.99
29.94, 99.99
29.94, 99.99
29.94, 99.99
29.94, 99.99
29.94, 99.99
29.94, 99.99
29.95, 99.99
29.95, 99.99
29.95, 99.99
29.95, 99.99
29.95, 99.99
29.95, 99.99
29.95, 99.99
29.95, 99.99
29.95, 99.99
29.95, 99.99
29.95, 99.99
29.95, 99.99
29.96, 99.99
29.96, 99.99
29.96, 99.99
29.96, 99.99
29.96, 99.99
29.96, 99.99
29.96, 99.99
29.96, 99.99
29.96, 99.99
29.96, 99.99
29.96, 99.99
29.97, 99.99
29.97, 99.99
29.97, 99.99
29.97, 99.99
29.97, 99.99
29.97, 99.99
29.97, 99.99
29.97, 99.99
29.97, 99.99
29.97, 99.99
29.97, 99.99
29.97, 99.99
29.98, 99.99
29.98, 99.99
29.98, 99.99
29.98, 99.99
29.98, 99.99
29.98, 99.99
29.98, 99.99
29.98, 99.99
29.98, 99.99
29.98, 99.99
29.98, 99.99
29.98, 99.99
29.99, 99.99
29.99, 99.99
29.99, 99.99
29.99, 99.99
29.99, 99.99
29.99, 99.99
29.99, 99.99
29.99, 99.99
29.99, 99.99
29.99, 99.99
29.99, 99.99
29.99, 99.99
29.99, 99.99
30.0, 99.99
30.0, 99.99
30.0, 99.99
30.0, 99.99
30.0, 99.99
30.0, 99.99
30.0, 99.99
30.0, 99.99
30.0, 99.99
30.0, 99.99
30.0, 99.99
30.0, 99.99
30.01, 99.99
30.01, 99.99
30.01, 99.99
30.01, 99.99
30.01, 99.99
30.01, 99.99
30.01, 99.99
30.01, 99.99
30.01, 99.99
30.01, 99.99
30.01, 99.99
30.01, 99.99
30.01, 99.99
30.02, 99.99
30.02, 99.99
30.02, 99.99
30.02, 99.99
30.02, 99.99
30.02, 99.99
30.02, 99.99
30.02, 99.99
30.02, 99.99
30.02, 99.99
30.02, 99.99
30.02, 99.99
30.02, 99.99
30.02, 99.99
30.03, 99.99
30.03, 99.99
30.03, 99.99
30.03, 99.99
30.03, 99.99
30.03, 99.99
30.03, 99.99
30.03, 99.99
30.03, 99.99
30.03, 99.99
30.03, 99.99
30.03, 99.99
30.03, 99.99
30.03, 99.99
30.04, 99.99
30.04, 99.99
30.04, 99.99
30.04, 99.99
30.04, 99.99
30.04, 99.99
30.04, 99.99
30.04, 99.99
30.04, 99.99
30.04, 99.99
30.04, 99.99
30.04, 99.99
30.04, 99.99
30.04, 99.99
30.05, 99.99
30.05, 99.99
30.05, 99.99
30.05, 99.99
30.05, 99.99
30.05, 99.99
30.05, 99.99
30.05, 99.99
30.05, 99.99
30.05, 99.99
30.05, 99.99
30.05, 99.99
30.05, 99.99
30.05, 99.99
30.05, 99.99
30.06, 99.99
30.06, 99.99
30.06, 99.99
30.06, 99.99
30.06, 99.99
30.06, 99.99
30.06, 99.99
30.06, 99.99
30.06, 99.99
30.06, 99.99
30.06, 99.99
30.06, 99.99
30.06, 99.99
30.06, 99.99
30.06, 99.99
30.06, 99.99
30.07, 99.99
30.07, 99.99
30.07, 99.99
30.07, 99.99
30.07, 99.99
30.07, 99.99
30.07, 99.99
30.07, 99.99
30.07, 99.99
30.07, 99.99
30.07, 99.99
30.07, 99.99
30.07, 99.99
30.07, 99.99
30.07, 99.99
30.07, 99.99
30.08, 99.99
30.08, 99.99
30.08, 99.99
30.08, 99.99
30.08, 99.99
30.08, 99.99
30.08, 99.99
30.08, 99.99
30.08, 99.99
30.08, 99.99
30.08, 99.99
30.08, 99.99
30.08, 99.99
30.08, 99.99
30.08, 99.99
30.08, 99.99
30.08, 99.99
30.09, 99.99
30.09, 99.99
30.09, 99.99
30.09, 99.99
30.09, 99.99
30.09, 99.99
30.09, 99.99
30.09, 99.99
30.09, 99.99
30.09, 99.99
30.09, 99.99
30.09, 99.99
30.09, 99.99
30.09, 99.99
30.09, 99.99
30.09, 99.99
30.09, 99.99
30.1, 99.99
30.1, 99.99
30.1, 99.99
30.1, 99.99
30.1, 99.99
30.1, 99.99
30.1, 99.99
30.1, 99.99
30.1, 99.99
30.1, 99.99
30.1, 99.99
30.1, 99.99
30.1, 99.99
30.1, 99.99
30.1, 99.99
30.1, 99.99
30.1, 99.99
30.1, 99.99
30.1, 99.99
30.11, 99.99
30.11, 99.99
30.11, 99.99
30.11, 99.99
30.11, 99.99
30.11, 99.99
30.11, 99.99
30.11, 99.99
30.11, 99.99
30.11, 99.99
30.11, 99.99
30.11, 99.99
30.11, 99.99
30.11, 99.99
30.11, 99.99
30.11, 99.99
30.11, 99.99
30.11, 99.99
30.11, 99.99
30.12, 99.99
30.12, 99.99
30.12, 99.99
30.12, 99.99
30.12, 99.99
30.12, 99.99
30.12, 99.99
30.12, 99.99
30.12, 99.99
30.12, 99.99
30.12, 99.99
30.12, 99.99
30.12, 99.99
30.12, 99.99
30.12, 99.99
30.12, 99.99
30.12, 99.99
30.12, 99.99
30.12, 99.99
30.12, 99.99
30.12, 99.99
30.13, 99.99
30.13, 99.99
30.13, 99.99
30.13, 99.99
30.13, 99.99
30.13, 99.99
30.13, 99.99
30.13, 99.99
30.13, 99.99
30.13, 99.99
30.13, 99.99
30.13, 99.99
30.13, 99.99
30.13, 99.99
30.13, 99.99
30.13, 99.99
30.13, 99.99
30.13, 99.99
30.13, 99.99
30.13, 99.99
30.13, 99.99
30.13, 99.99
30.13, 99.99
30.14, 99.99
30.14, 99.99
30.14, 99.99
30.14, 99.99
30.14, 99.99
30.14, 99.99
30.14, 99.99
30.14, 99.99
30.14, 99.99
30.14, 99.99
30.14, 99.99
30.14, 99.99
30.14, 99.99
30.14, 99.99
30.14, 99.99
30.14, 99.99
30.14, 99.99
30.14, 99.99
30.14, 99.99
30.14, 99.99
30.14, 99.99
30.14, 99.99
30.14, 99.99
30.14, 99.99
30.14, 99.99
30.15, 99.99
30.15, 99.99
30.15, 99.99
30.15, 99.99
30.15, 99.99
30.15, 99.99
30.15, 99.99
30.15, 99.99
30.15, 99.99
30.15, 99.99
30.15, 99.99
30.15, 99.99
30.15, 99.99
30.15, 99.99
30.15, 99.99
30.15, 99.99
30.15, 99.99
30.15, 99.99
30.15, 99.99
30.15, 99.99
30.15, 99.99
30.15, 99.99
30.15, 99.99
30.15, 99.99
30.15, 99.99
30.15, 99.99
30.15, 99.99
30.16, 99.99
30.16, 99.99
30.16, 99.99
30.16, 99.99
30.16, 99.99
30.16, 99.99
30.16, 99.99
30.16, 99.99
30.16, 99.99
30.16, 99.99
30.16, 99.99
30.16, 99.99
30.16, 99.99
30.16, 99.99
30.16, 99.99
30.16, 99.99
30.16, 99.99
30.16, 99.99
30.16, 99.99
30.16, 99.99
30.16, 99.99
30.16, 99.99
30.16, 99.99
30.16, 99.99
30.16, 99.99
30.16, 99.99
30.16, 99.99
30.16, 99.99
30.16, 99.99
30.16, 99.99
30.16, 99.99
30.16, 99.99
30.17, 99.99
30.17, 99.99
30.17, 99.99
30.17, 99.99
30.17, 99.99
30.17, 99.99
30.17, 99.99
30.17, 99.99
30.17, 99.99
30.17, 99.99
30.17, 99.99
30.17, 99.99
30.17, 99.99
30.17, 99.99
30.17, 99.99
30.17, 99.99
30.17, 99.99
30.17, 99.99
30.17, 99.99
30.17, 99.99
30.17, 99.99
30.17, 99.99
30.17, 99.99
30.17, 99.99
30.17, 99.99
30.17, 99.99
30.17, 99.99
30.17, 99.99
30.17, 99.99
30.17, 99.99
30.17, 99.99
30.17, 99.99
30.17, 99.99
30.17, 99.99
30.17, 99.99
30.17, 99.99
30.17, 99.99
30.17, 99.99
30.17, 99.99
30.18, 99.99
30.18, 99.99
30.18, 99.99
30.18, 99.99
30.18, 99.99
30.18, 99.99
30.18, 99.99
30.18, 99.99
30.18, 99.99
30.18, 99.99
30.18, 99.99
30.18, 99.99
30.18, 99.99
30.18, 99.99
30.18, 99.99
30.18, 99.99
30.18, 99.99
30.18, 99.99
30.18, 99.99
30.18, 99.99
30.18, 99.99
30.18, 99.99
30.18, 99.99
30.18, 99.99
30.18, 99.99
30.18, 99.99
30.18, 99.99
30.18, 99.99
30.18, 99.99
30.18, 99.99
30.18, 99.99
30.18, 99.99
30.18, 99.99
30.18, 99.99
30.18, 99.99
30.18, 99.99
30.18, 99.99
30.18, 99.99
30.18, 99.99
30.18, 99.99
30.18, 99.99
30.18, 99.99
30.18, 99.99
30.18, 99.99
30.18, 99.99
30.18, 99.99
30.18, 99.99
30.18, 99.99
30.18, 99.99
30.18, 99.99
30.18, 99.99
30.18, 99.99
30.18, 99.99
30.18, 99.99
30.18, 99.99
30.18, 99.99
30.18, 99.99
30.19, 99.99
30.19, 99.99
30.19, 99.99
30.19, 99.99
30.19, 99.99
30.19, 99.99
30.19, 99.99
30.19, 99.99
30.19, 99.99
30.19, 99.99
30.19, 99.99
30.19, 99.99
30.19, 99.99
30.19, 99.99
30.19, 99.99
30.19, 99.99
30.19, 99.99
30.19, 99.99
30.19, 99.99
30.19, 99.99
30.19, 99.99
30.19, 99.99
30.19, 99.99
30.19, 99.99
30.19, 99.99
30.19, 99.99
30.19, 99.99
30.19, 99.99
30.19, 99.99
30.19, 99.99
30.19, 99.99
30.19, 99.99
30.19, 99.99
30.19, 99.99
30.19, 99.99
30.19, 99.99
30.19, 99.99
30.19, 99.99
30.19, 99.99
30.19, 99.99
30.19, 99.99
30.19, 99.99
30.19, 99.99
30.19, 99.99
30.19, 99.99
30.19, 99.99
30.19, 99.99
30.19, 99.99
30.19, 99.99
30.19, 99.99
30.19, 99.99
30.19, 99.99
30.19, 99.99
30.19, 99.99
30.19, 99.99
30.19, 99.99
30.19, 99.99
30.19, 99.99
30.19, 99.99
30.19, 99.99
30.19, 99.99
30.19, 99.99
30.19, 99.99
30.19, 99.99
30.19, 99.99
30.19, 99.99
30.19, 99.99
30.19, 99.99
30.19, 99.99
30.19, 99.99
30.19, 99.99
30.19, 99.99
30.19, 99.99
30.19, 99.99
30.19, 99.99
30.19, 99.99
30.19, 99.99
30.19, 99.99
30.19, 99.99
30.19, 99.99
30.19, 99.99
30.19, 99.99
30.19, 99.99
30.19, 99.99
30.19, 99.99
30.19, 99.99
30.19, 99.99
30.19, 99.99
30.19, 99.99
30.19, 99.99
30.19, 99.99
30.19, 99.99
30.19, 99.99
30.19, 99.99
30.19, 99.99
30.19, 99.99
30.19, 99.99
30.19, 99.99
30.19, 99.99
30.19, 99.99
30.19, 99.99
30.19, 99.99
30.19, 99.99
30.19, 99.99
30.19, 99.99
30.19, 99.99
30.19, 99.99
30.19, 99.99
30.19, 99.99
30.19, 99.99
30.19, 99.99
30.19, 99.99
30.19, 99.99
30.19, 99.99
30.19, 99.99
30.19, 99.99
30.19, 99.99
30.19, 99.99
30.19, 99.99
30.19, 99.99
30.19, 99.99
30.19, 99.99
30.19, 99.99
30.19, 99.99
30.19, 99.99
30.19, 99.99
30.19, 99.99
30.19, 99.99
30.19, 99.99
30.19, 99.99
30.19, 99.99
30.19, 99.99
30.19, 99.99
30.19, 99.99
30.19, 99.99
30.19, 99.99
30.19, 99.99
30.19, 99.99
30.19, 99.99
30.19, 99.99
30.19, 99.99
30.19, 99.99
30.19, 99.99
30.19, 99.99
30.19, 99.99
30.19, 99.99
30.19, 99.99
30.19, 99.99
30.19, 99.99
30.19, 99.99
30.19, 99.99
30.19, 99.99
30.19, 99.99
30.18, 99.99
30.18, 99.99
30.18, 99.99
30.18, 99.99
30.18, 99.99
30.18, 99.99
30.18, 99.99
30.18, 99.99
30.18, 99.99
30.18, 99.99
30.18, 99.99
30.18, 99.99
30.18, 99.99
30.18, 99.99
30.18, 99.99
30.18, 99.99
30.18, 99.99
30.18, 99.99
30.18, 99.99
30.18, 99.99
30.18, 99.99
30.18, 99.99
30.18, 99.99
30.18, 99.99
30.18, 99.99
30.18, 99.99
30.18, 99.99
30.18, 99.99
30.18, 99.99
30.18, 99.99
30.18, 99.99
30.18, 99.99
30.18, 99.99
30.18, 99.99
30.18, 99.99
30.18, 99.99
30.18, 99.99
30.18, 99.99
30.18, 99.99
30.18, 99.99
30.18, 99.99
30.18, 99.99
30.18, 99.99
30.18, 99.99
30.18, 99.99
30.18, 99.99
30.18, 99.99
30.18, 99.99
30.18, 99.99
30.18, 99.99
30.18, 99.99
30.18, 99.99
30.18, 99.99
30.18, 99.99
30.18, 99.99
30.17, 99.99
30.17, 99.99
30.17, 99.99
30.17, 99.99
30.17, 99.99
30.17, 99.99
30.17, 99.99
30.17, 99.99
30.17, 99.99
30.17, 99.99
30.17, 99.99
30.17, 99.99
30.17, 99.99
30.17, 99.99
30.17, 99.99
30.17, 99.99
30.17, 99.99
30.17, 99.99
30.17, 99.99
30.17, 99.99
30.17, 99.99
30.17, 99.99
30.17, 99.99
30.17, 99.99
30.17, 99.99
30.17, 99.99
30.17, 99.99
30.17, 99.99
30.17, 99.99
30.17, 99.99
30.17, 99.99
30.17, 99.99
30.17, 99.99
30.17, 99.99
30.17, 99.99
30.17, 99.99
30.17, 99.99
30.17, 99.99
30.17, 99.99
30.16, 99.99
30.16, 99.99
30.16, 99.99
30.16, 99.99
30.16, 99.99
30.16, 99.99
30.16, 99.99
30.16, 99.99
30.16, 99.99
30.16, 99.99
30.16, 99.99
30.16, 99.99
30.16, 99.99
30.16, 99.99
30.16, 99.99
30.16, 99.99
30.16, 99.99
30.16, 99.99
30.16, 99.99
30.16, 99.99
30.16, 99.99
30.16, 99.99
30.16, 99.99
30.16, 99.99
30.16, 99.99
30.16, 99.99
30.16, 99.99
30.16, 99.99
30.16, 99.99
30.16, 99.99
30.16, 99.99
30.15, 99.99
30.15, 99.99
30.15, 99.99
30.15, 99.99
30.15, 99.99
30.15, 99.99
30.15, 99.99
30.15, 99.99
30.15, 99.99
30.15, 99.99
30.15, 99.99
30.15, 99.99
30.15, 99.99
30.15, 99.99
30.15, 99.99
30.15, 99.99
30.15, 99.99
30.15, 99.99
30.15, 99.99
30.15, 99.99
30.15, 99.99
30.15, 99.99
30.15, 99.99
30.15, 99.99
30.15, 99.99
30.15, 99.99
30.15, 99.99
30.14, 99.99
30.14, 99.99
30.14, 99.99
30.14, 99.99
30.14, 99.99
30.14, 99.99
30.14, 99.99
30.14, 99.99
30.14, 99.99
30.14, 99.99
30.14, 99.99
30.14, 99.99
30.14, 99.99
30.14, 99.99
30.14, 99.99
30.14, 99.99
30.14, 99.99
30.14, 99.99
30.14, 99.99
30.14, 99.99
30.14, 99.99
30.14, 99.99
30.14, 99.99
30.14, 99.99
30.13, 99.99
30.13, 99.99
30.13, 99.99
30.13, 99.99
30.13, 99.99
30.13, 99.99
30.13, 99.99
30.13, 99.99
30.13, 99.99
30.13, 99.99
30.13, 99.99
30.13, 99.99
30.13, 99.99
30.13, 99.99
30.13, 99.99
30.13, 99.99
30.13, 99.99
30.13, 99.99
30.13, 99.99
30.13, 99.99
30.13, 99.99
30.13, 99.99
30.12, 99.99
30.12, 99.99
30.12, 99.99
30.12, 99.99
30.12, 99.99
30.12, 99.99
30.12, 99.99
30.12, 99.99
30.12, 99.99
30.12, 99.99
30.12, 99.99
30.12, 99.99
30.12, 99.99
30.12, 99.99
30.12, 99.99
30.12, 99.99
30.12, 99.99
30.12, 99.99
30.12, 99.99
30.12, 99.99
30.12, 99.99
30.11, 99.99
30.11, 99.99
30.11, 99.99
30.11, 99.99
30.11, 99.99
30.11, 99.99
30.11, 99.99
30.11, 99.99
30.11, 99.99
30.11, 99.99
30.11, 99.99
30.11, 99.99
30.11, 99.99
30.11, 99.99
30.11, 99.99
30.11, 99.99
30.11, 99.99
30.11, 99.99
30.11, 99.99
30.11, 99.99
30.1, 99.99
30.1, 99.99
30.1, 99.99
30.1, 99.99
30.1, 99.99
30.1, 99.99
30.1, 99.99
30.1, 99.99
30.1, 99.99
30.1, 99.99
30.1, 99.99
30.1, 99.99
30.1, 99.99
30.1, 99.99
30.1, 99.99
30.1, 99.99
30.1, 99.99
30.1, 99.99
30.1, 99.99
30.09, 99.99
30.09, 99.99
30.09, 99.99
30.09, 99.99
30.09, 99.99
30.09, 99.99
30.09, 99.99
30.09, 99.99
30.09, 99.99
30.09, 99.99
30.09, 99.99
30.09, 99.99
30.09, 99.99
30.09, 99.99
30.09, 99.99
30.09, 99.99
30.09, 99.99
30.09, 99.99
30.08, 99.99
30.08, 99.99
30.08, 99.99
30.08, 99.99
30.08, 99.99
30.08, 99.99
30.08, 99.99
30.08, 99.99
30.08, 99.99
30.08, 99.99
30.08, 99.99
30.08, 99.99
30.08, 99.99
30.08, 99.99
30.08, 99.99
30.08, 99.99
30.08, 99.99
30.07, 99.99
30.07, 99.99
30.07, 99.99
30.07, 99.99
30.07, 99.99
30.07, 99.99
30.07, 99.99
30.07, 99.99
30.07, 99.99
30.07, 99.99
30.07, 99.99
30.07, 99.99
30.07, 99.99
30.07, 99.99
30.07, 99.99
30.07, 99.99
30.07, 99.99
30.06, 99.99
30.06, 99.99
30.06, 99.99
30.06, 99.99
30.06, 99.99
30.06, 99.99
30.06, 99.99
30.06, 99.99
30.06, 99.99
30.06, 99.99
30.06, 99.99
30.06, 99.99
30.06, 99.99
30.06, 99.99
30.06, 99.99
30.06, 99.99
30.05, 99.99
30.05, 99.99
30.05, 99.99
30.05, 99.99
30.05, 99.99
30.05, 99.99
30.05, 99.99
30.05, 99.99
30.05, 99.99
30.05, 99.99
30.05, 99.99
30.05, 99.99
30.05, 99.99
30.05, 99.99
30.05, 99.99
30.05, 99.99
30.04, 99.99
30.04, 99.99
30.04, 99.99
30.04, 99.99
30.04, 99.99
30.04, 99.99
30.04, 99.99
30.04, 99.99
30.04, 99.99
30.04, 99.99
30.04, 99.99
30.04, 99.99
30.04, 99.99
30.04, 99.99
30.04, 99.99
30.03, 99.99
30.03, 99.99
30.03, 99.99
30.03, 99.99
30.03, 99.99
30.03, 99.99
30.03, 99.99
30.03, 99.99
30.03, 99.99
30.03, 99.99
30.03, 99.99
30.03, 99.99
30.03, 99.99
30.03, 99.99
30.03, 99.99
30.02, 99.99
30.02, 99.99
30.02, 99.99
30.02, 99.99
30.02, 99.99
30.02, 99.99
30.02, 99.99
30.02, 99.99
30.02, 99.99
30.02, 99.99
30.02, 99.99
30.02, 99.99
30.02, 99.99
30.02, 99.99
30.02, 99.99
30.01, 99.99
30.01, 99.99
30.01, 99.99
30.01, 99.99
30.01, 99.99
30.01, 99.99
30.01, 99.99
30.01, 99.99
30.01, 99.99
30.01, 99.99
30.01, 99.99
30.01, 99.99
30.01, 99.99
30.01, 99.99
30.01, 99.99
30.0, 99.99
30.0, 99.99
30.0, 99.99
30.0, 99.99
30.0, 99.99
30.0, 99.99
30.0, 99.99
30.0, 99.99
30.0, 99.99
30.0, 99.99
30.0, 99.99
30.0, 99.99
30.0, 99.99
30.0, 99.99
29.99, 99.99
29.99, 99.99
29.99, 99.99
29.99, 99.99
29.99, 99.99
29.99, 99.99
29.99, 99.99
29.99, 99.99
29.99, 99.99
29.99, 99.99
29.99, 99.99
29.99, 99.99
29.99, 99.99
29.99, 99.99
29.99, 99.99
29.98, 99.99
29.98, 99.99
29.98, 99.99
29.98, 99.99
29.98, 99.99
29.98, 99.99
29.98, 99.99
29.98, 99.99
29.98, 99.99
29.98, 99.99
29.98, 99.99
29.98, 99.99
29.98, 99.99
29.98, 99.99
29.97, 99.99
29.97, 99.99
29.97, 99.99
29.97, 99.99
29.97, 99.99
29.97, 99.99
29.97, 99.99
29.97, 99.99
29.97, 99.99
29.97, 99.99
29.97, 99.99
29.97, 99.99
29.97, 99.99
29.97, 99.99
29.96, 99.99
29.96, 99.99
29.96, 99.99
29.96, 99.99
29.96, 99.99
29.96, 99.99
29.96, 99.99
29.96, 99.99
29.96, 99.99
29.96, 99.99
29.96, 99.99
29.96, 99.99
29.96, 99.99
29.96, 99.99
29.95, 99.99
29.95, 99.99
29.95, 99.99
29.95, 99.99
29.95, 99.99
29.95, 99.99
29.95, 99.99
29.95, 99.99
29.95, 99.99
29.95, 99.99
29.95, 99.99
29.95, 99.99
29.95, 99.99
29.94, 99.99
29.94, 99.99
29.94, 99.99
29.94, 99.99
29.94, 99.99
29.94, 99.99
29.94, 99.99
29.94, 99.99
29.94, 99.99
29.94, 99.99
29.94, 99.99
29.94, 99.99
29.94, 99.99
29.93, 99.99
29.93, 99.99
29.93, 99.99
29.93, 99.99
29.93, 99.99
29.93, 99.99
29.93, 99.99
29.93, 99.99
29.93, 99.99
29.93, 99.99
29.93, 99.99
29.93, 99.99
29.93, 99.99
29.93, 99.99
29.92, 99.99
29.92, 99.99
29.92, 99.99
29.92, 99.99
29.92, 99.99
29.92, 99.99
29.92, 99.99
29.92, 99.99
29.92, 99.99
29.92, 99.99
29.92, 99.99
29.92, 99.99
29.91, 99.99
29.91, 99.99
29.91, 99.99
29.91, 99.99
29.91, 99.99
29.91, 99.99
29.91, 99.99
29.91, 99.99
29.91, 99.99
29.91, 99.99
29.91, 99.99
29.91, 99.99
29.91, 99.99
29.9, 99.99
29.9, 99.99
29.9, 99.99
29.9, 99.99
29.9, 99.99
29.9, 99.99
29.9, 99.99
29.9, 99.99
29.9, 99.99
29.9, 99.99
29.9, 99.99
29.9, 99.99
29.9, 99.99
29.89, 99.99
29.89, 99.99
29.89, 99.99
29.89, 99.99
29.89, 99.99
29.89, 99.99
29.89, 99.99
29.89, 99.99
29.89, 99.99
29.89, 99.99
29.89, 99.99
29.89, 99.99
29.88, 99.99
29.88, 99.99
29.88, 99.99
29.88, 99.99
29.88, 99.99
29.88, 99.99
29.88, 99.99
29.88, 99.99
29.88, 99.99
29.88, 99.99
29.88, 99.99
29.88, 99.99
29.87, 99.99
29.87, 99.99
29.87, 99.99
29.87, 99.99
29.87, 99.99
29.87, 99.99
29.87, 99.99
29.87, 99.99
29.87, 99.99
29.87, 99.99
29.87, 99.99
29.87, 99.99
29.86, 99.99
29.86, 99.99
29.86, 99.99
29.86, 99.99
29.86, 99.99
29.86, 99.99
29.86, 99.99
29.86, 99.99
29.86, 99.99
29.86, 99.99
29.86, 99.99
29.86, 99.99
29.85, 99.99
29.85, 99.99
29.85, 99.99
29.85, 99.99
29.85, 99.99
29.85, 99.99
29.85, 99.99
29.85, 99.99
29.85, 99.99
29.85, 99.99
29.85, 99.99
29.85, 99.99
29.84, 99.99
29.84, 99.99
29.84, 99.99
29.84, 99.99
29.84, 99.99
29.84, 99.99
29.84, 99.99
29.84, 99.99
29.84, 99.99
29.84, 99.99
29.84, 99.99
29.84, 99.99
29.83, 99.99
29.83, 99.99
29.83, 99.99
29.83, 99.99
29.83, 99.99
29.83, 99.99
29.83, 99.99
29.83, 99.99
29.83, 99.99
29.83, 99.99
29.83, 99.99
29.83, 99.99
29.82, 99.99
29.82, 99.99
29.82, 99.99
29.82, 99.99
29.82, 99.99
29.82, 99.99
29.82, 99.99
29.82, 99.99
29.82, 99.99
29.82, 99.99
29.82, 99.99
29.82, 99.99
29.81, 99.99
29.81, 99.99
29.81, 99.99
29.81, 99.99
29.81, 99.99
29.81, 99.99
29.81, 99.99
29.81, 99.99
29.81, 99.99
29.81, 99.99
29.81, 99.99
29.81, 99.99
29.81, 99.99
29.8, 99.99
29.8, 99.99
29.8, 99.99
29.8, 99.99
29.8, 99.99
29.8, 99.99
29.8, 99.99
29.8, 99.99
29.8, 99.99
29.8, 99.99
29.8, 99.99
29.8, 99.99
29.8, 99.99
29.79, 99.99
29.79, 99.99
29.79, 99.99
29.79, 99.99
29.79, 99.99
29.79, 99.99
29.79, 99.99
29.79, 99.99
29.79, 99.99
29.79, 99.99
29.79, 99.99
29.79, 99.99
29.79, 99.99
29.79, 99.99
29.78, 99.99
29.78, 99.99
29.78, 99.99
29.78, 99.99
29.78, 99.99
29.78, 99.99
29.78, 99.99
29.78, 99.99
29.78, 99.99
29.78, 99.99
29.78, 99.99
29.78, 99.99
29.78, 99.99
29.78, 99.99
29.78, 99.99
29.78, 99.99
29.77, 99.99
29.77, 99.99
29.77, 99.99
29.77, 99.99
29.77, 99.99
29.77, 99.99
29.77, 99.99
29.77, 99.99
29.77, 99.99
29.77, 99.99
29.77, 99.99
29.77, 99.99
29.77, 99.99
29.77, 99.99
29.77, 99.99
29.77, 99.99
29.77, 99.99
29.76, 99.99
29.76, 99.99
29.76, 99.99
29.76, 99.99
29.76, 99.99
29.76, 99.99
29.76, 99.99
29.76, 99.99
29.76, 99.99
29.76, 99.99
29.76, 99.99
29.76, 99.99
29.76, 99.99
29.76, 99.99
29.76, 99.99
29.76, 99.99
29.76, 99.99
29.76, 99.99
29.75, 99.99
29.75, 99.99
29.75, 99.99
29.75, 99.99
29.75, 99.99
29.75, 99.99
29.75, 99.99
29.75, 99.99
29.75, 99.99
29.75, 99.99
29.75, 99.99
29.75, 99.99
29.75, 99.99
29.75, 99.99
29.75, 99.99
29.75, 99.99
29.75, 99.99
29.75, 99.99
29.75, 99.99
29.74, 99.99
29.74, 99.99
29.74, 99.99
29.74, 99.99
29.74, 99.99
29.74, 99.99
29.74, 99.99
29.74, 99.99
29.74, 99.99
29.74, 99.99
29.74, 99.99
29.74, 99.99
29.74, 99.99
29.74, 99.99
29.74, 99.99
29.74, 99.99
29.74, 99.99
29.74, 99.99
29.74, 99.99
29.74, 99.99
29.74, 99.99
29.73, 99.99
29.73, 99.99
29.73, 99.99
29.73, 99.99
29.73, 99.99
29.73, 99.99
29.73, 99.99
29.73, 99.99
29.73, 99.99
29.73, 99.99
29.73, 99.99
29.73, 99.99
29.73, 99.99
29.73, 99.99
29.73, 99.99
29.73, 99.99
29.73, 99.99
29.73, 99.99
29.73, 99.99
29.73, 99.99
29.73, 99.99
29.73, 99.99
29.73, 99.99
29.72, 99.99
29.72, 99.99
29.72, 99.99
29.72, 99.99
29.72, 99.99
29.72, 99.99
29.72, 99.99
29.72, 99.99
29.72, 99.99
29.72, 99.99
29.72, 99.99
29.72, 99.99
29.72, 99.99
29.72, 99.99
29.72, 99.99
29.72, 99.99
29.72, 99.99
29.72, 99.99
29.72, 99.99
29.72, 99.99
29.72, 99.99
29.72, 99.99
29.72, 99.99
29.72, 99.99
29.72, 99.99
29.72, 99.99
29.72, 99.99
29.72, 99.99
29.71, 99.99
29.71, 99.99
29.71, 99.99
29.71, 99.99
29.71, 99.99
29.71, 99.99
29.71, 99.99
29.71, 99.99
29.71, 99.99
29.71, 99.99
29.71, 99.99
29.71, 99.99
29.71, 99.99
29.71, 99.99
29.71, 99.99
29.71, 99.99
29.71, 99.99
29.71, 99.99
29.71, 99.99
29.71, 99.99
29.71, 99.99
29.71, 99.99
29.71, 99.99
29.71, 99.99
29.71, 99.99
29.71, 99.99
29.71, 99.99
29.71, 99.99
29.71, 99.99
29.71, 99.99
29.71, 99.99
29.71, 99.99
29.7, 99.99
29.7, 99.99
29.7, 99.99
29.7, 99.99
29.7, 99.99
29.7, 99.99
29.7, 99.99
29.7, 99.99
29.7, 99.99
29.7, 99.99
29.7, 99.99
29.7, 99.99
29.7, 99.99
29.7, 99.99
29.7, 99.99
29.7, 99.99
29.7, 99.99
29.7, 99.99
29.7, 99.99
29.7, 99.99
29.7, 99.99
29.7, 99.99
29.7, 99.99
29.7, 99.99
29.7, 99.99
29.7, 99.99
29.7, 99.99
29.7, 99.99
29.7, 99.99
29.7, 99.99
29.7, 99.99
29.7, 99.99
29.7, 99.99
29.7, 99.99
29.7, 99.99
29.7, 99.99
29.7, 99.99
29.7, 99.99
29.7, 99.99
29.69, 99.99
29.69, 99.99
29.69, 99.99
29.69, 99.99
29.69, 99.99
29.69, 99.99
29.69, 99.99
29.69, 99.99
29.69, 99.99
29.69, 99.99
29.69, 99.99
29.69, 99.99
29.69, 99.99
29.69, 99.99
29.69, 99.99
29.69, 99.99
29.69, 99.99
29.69, 99.99
29.69, 99.99
29.69, 99.99
29.69, 99.99
29.69, 99.99
29.69, 99.99
29.69, 99.99
29.69, 99.99
29.69, 99.99
29.69, 99.99
29.69, 99.99
29.69, 99.99
29.69, 99.99
29.69, 99.99
29.69, 99.99
29.69, 99.99
29.69, 99.99
29.69, 99.99
29.69, 99.99
29.69, 99.99
29.69, 99.99
29.69, 99.99
29.69, 99.99
29.69, 99.99
29.69, 99.99
29.69, 99.99
29.69, 99.99
29.69, 99.99
29.69, 99.99
29.69, 99.99
29.69, 99.99
29.69, 99.99
29.69, 99.99
29.69, 99.99
29.69, 99.99
29.69, 99.99
29.69, 99.99
29.69, 99.99
29.69, 99.99
29.68, 99.99
29.68, 99.99
29.68, 99.99
29.68, 99.99
29.68, 99.99
29.68, 99.99
29.68, 99.99
29.68, 99.99
29.68, 99.99
29.68, 99.99
29.68, 99.99
29.68, 99.99
29.68, 99.99
29.68, 99.99
29.68, 99.99
29.68, 99.99
29.68, 99.99
29.68, 99.99
29.68, 99.99
29.68, 99.99
29.68, 99.99
29.68, 99.99
29.68, 99.99
29.68, 99.99
29.68, 99.99
29.68, 99.99
29.68, 99.99
29.68, 99.99
29.68, 99.99
29.68, 99.99
29.68, 99.99
29.68, 99.99
29.68, 99.99
29.68, 99.99
29.68, 99.99
29.68, 99.99
29.68, 99.99
29.68, 99.99
29.68, 99.99
29.68, 99.99
29.68, 99.99
29.68, 99.99
29.68, 99.99
29.68, 99.99
29.68, 99.99
29.68, 99.99
29.68, 99.99
29.68, 99.99
29.68, 99.99
29.68, 99.99
29.68, 99.99
29.68, 99.99
29.68, 99.99
29.68, 99.99
29.68, 99.99
29.68, 99.99
29.68, 99.99
29.68, 99.99
29.68, 99.99
29.68, 99.99
29.68, 99.99
29.68, 99.99
29.68, 99.99
29.68, 99.99
29.68, 99.99
29.68, 99.99
29.68, 99.99
29.68, 99.99
29.68, 99.99
29.68, 99.99
29.68, 99.99
29.68, 99.99
29.68, 99.99
29.68, 99.99
29.68, 99.99
29.68, 99.99
29.68, 99.99
29.68, 99.99
29.68, 99.99
29.68, 99.99
29.68, 99.99
29.68, 99.99
29.68, 99.99
29.68, 99.99
29.68, 99.99
29.68, 99.99
29.68, 99.99
29.68, 99.99
29.68, 99.99
29.68, 99.99
29.68, 99.99
29.68, 99.99
29.68, 99.99
29.68, 99.99
29.68, 99.99
29.68, 99.99
##END=$$ End of the data block
