Data from Absorbance_14-38-32-818.txt Node
Date: Mon Jul 24 14:38:32 CEST 2023
User: AK Théato Seminar
Spectrometer: HDX00655
Trigger mode: 0
Integration Time (sec): 1.000000E-1
Scans to average: 1
Nonlinearity correction enabled: false
Boxcar width: 0
Storing dark spectrum: false
XAxis mode: Wavelengths
Number of Pixels in Spectrum: 2068
>>>>>Begin Spectral Data<<<<<
194.076	-0.37
194.628	-0.26
195.18	-0.85
195.732	0.6
196.284	-0
196.835	-0.15
197.387	0.05
197.938	-0.04
198.49	0.56
199.041	0.04
199.592	0.1
200.143	-0.25
200.694	-0.03
201.244	-0.01
201.795	0.04
202.345	-0.09
202.896	-0.01
203.446	0.13
203.996	-0.11
204.546	0.31
205.096	0.09
205.646	0.04
206.195	0.27
206.745	0.1
207.294	0.2
207.843	0.21
208.392	0.17
208.942	0.29
209.49	0.04
210.039	0.46
210.588	0.47
211.136	0.58
211.685	0.26
212.233	0.32
212.781	0.25
213.33	0.32
213.877	0.24
214.425	0.28
214.973	0.39
215.521	0.38
216.068	0.19
216.616	0.2
217.163	0.19
217.71	0.36
218.257	0.3
218.804	0.25
219.351	0.35
219.897	0.36
220.444	0.5
220.99	0.42
221.537	0.36
222.083	0.33
222.629	0.37
223.175	0.37
223.721	0.42
224.266	0.46
224.812	0.42
225.357	0.44
225.903	0.39
226.448	0.38
226.993	0.39
227.538	0.38
228.083	0.38
228.628	0.37
229.172	0.37
229.717	0.34
230.261	0.32
230.806	0.33
231.35	0.33
231.894	0.32
232.438	0.3
232.982	0.31
233.525	0.29
234.069	0.27
234.612	0.26
235.156	0.27
235.699	0.26
236.242	0.25
236.785	0.25
237.328	0.23
237.871	0.23
238.413	0.23
238.956	0.22
239.498	0.21
240.041	0.22
240.583	0.21
241.125	0.21
241.667	0.2
242.208	0.19
242.75	0.19
243.292	0.19
243.833	0.19
244.375	0.18
244.916	0.18
245.457	0.17
245.998	0.17
246.539	0.16
247.08	0.17
247.62	0.16
248.161	0.16
248.701	0.16
249.241	0.16
249.782	0.15
250.322	0.16
250.862	0.15
251.401	0.14
251.941	0.14
252.481	0.15
253.02	0.14
253.56	0.14
254.099	0.13
254.638	0.14
255.177	0.13
255.716	0.13
256.254	0.13
256.793	0.13
257.332	0.13
257.87	0.13
258.408	0.12
258.947	0.11
259.485	0.12
260.023	0.12
260.56	0.12
261.098	0.12
261.636	0.12
262.173	0.11
262.711	0.1
263.248	0.11
263.785	0.11
264.322	0.1
264.859	0.11
265.396	0.1
265.932	0.11
266.469	0.1
267.005	0.1
267.542	0.09
268.078	0.09
268.614	0.09
269.15	0.1
269.686	0.09
270.221	0.09
270.757	0.09
271.292	0.09
271.828	0.1
272.363	0.09
272.898	0.1
273.433	0.09
273.968	0.08
274.503	0.09
275.038	0.08
275.572	0.09
276.107	0.08
276.641	0.09
277.175	0.08
277.709	0.08
278.243	0.09
278.777	0.08
279.311	0.08
279.844	0.08
280.378	0.07
280.911	0.07
281.445	0.07
281.978	0.07
282.511	0.08
283.044	0.08
283.577	0.07
284.109	0.08
284.642	0.07
285.174	0.07
285.707	0.08
286.239	0.07
286.771	0.08
287.303	0.07
287.835	0.07
288.367	0.06
288.898	0.08
289.43	0.07
289.961	0.07
290.493	0.07
291.024	0.07
291.555	0.07
292.086	0.07
292.617	0.07
293.147	0.07
293.678	0.06
294.208	0.07
294.739	0.08
295.269	0.07
295.799	0.07
296.329	0.07
296.859	0.07
297.389	0.06
297.919	0.07
298.448	0.07
298.978	0.06
299.507	0.07
300.036	0.07
300.565	0.07
301.094	0.07
301.623	0.07
302.152	0.07
302.681	0.07
303.209	0.07
303.738	0.07
304.266	0.07
304.794	0.08
305.322	0.07
305.85	0.07
306.378	0.08
306.906	0.06
307.433	0.07
307.961	0.07
308.488	0.08
309.015	0.07
309.543	0.08
310.07	0.07
310.596	0.07
311.123	0.08
311.65	0.07
312.177	0.07
312.703	0.08
313.229	0.07
313.756	0.08
314.282	0.08
314.808	0.08
315.334	0.08
315.859	0.08
316.385	0.08
316.91	0.09
317.436	0.08
317.961	0.08
318.486	0.09
319.011	0.1
319.536	0.09
320.061	0.09
320.586	0.09
321.111	0.09
321.635	0.09
322.16	0.09
322.684	0.09
323.208	0.09
323.732	0.09
324.256	0.1
324.78	0.1
325.303	0.1
325.827	0.1
326.35	0.1
326.874	0.1
327.397	0.11
327.92	0.1
328.443	0.11
328.966	0.1
329.489	0.11
330.012	0.1
330.534	0.1
331.057	0.12
331.579	0.1
332.101	0.12
332.623	0.11
333.145	0.11
333.667	0.12
334.189	0.11
334.71	0.11
335.232	0.12
335.753	0.12
336.275	0.12
336.796	0.12
337.317	0.12
337.838	0.13
338.359	0.13
338.879	0.12
339.4	0.12
339.921	0.13
340.441	0.12
340.961	0.13
341.481	0.12
342.001	0.12
342.521	0.13
343.041	0.13
343.561	0.12
344.08	0.13
344.6	0.13
345.119	0.13
345.639	0.13
346.158	0.13
346.677	0.13
347.196	0.13
347.714	0.14
348.233	0.14
348.752	0.14
349.27	0.13
349.788	0.14
350.307	0.14
350.825	0.13
351.343	0.14
351.861	0.14
352.378	0.14
352.896	0.14
353.414	0.14
353.931	0.14
354.448	0.14
354.965	0.14
355.483	0.14
356	0.15
356.516	0.13
357.033	0.14
357.55	0.13
358.066	0.13
358.583	0.14
359.099	0.15
359.615	0.16
360.131	0.14
360.647	0.14
361.163	0.14
361.679	0.12
362.194	0.14
362.71	0.14
363.225	0.12
363.741	0.15
364.256	0.13
364.771	0.14
365.286	0.13
365.8	0.13
366.315	0.12
366.83	0.14
367.344	0.14
367.859	0.13
368.373	0.14
368.887	0.13
369.401	0.13
369.915	0.13
370.429	0.12
370.942	0.13
371.456	0.12
371.97	0.12
372.483	0.12
372.996	0.12
373.509	0.12
374.022	0.11
374.535	0.12
375.048	0.11
375.561	0.12
376.073	0.11
376.586	0.12
377.098	0.12
377.61	0.12
378.122	0.11
378.634	0.11
379.146	0.11
379.658	0.11
380.17	0.08
380.681	0.1
381.193	0.11
381.704	0.09
382.215	0.11
382.726	0.1
383.237	0.11
383.748	0.1
384.259	0.1
384.77	0.09
385.28	0.11
385.791	0.09
386.301	0.09
386.811	0.09
387.321	0.08
387.831	0.08
388.341	0.1
388.851	0.09
389.36	0.08
389.87	0.09
390.379	0.08
390.889	0.08
391.398	0.09
391.907	0.08
392.416	0.06
392.925	0.08
393.434	0.06
393.942	0.07
394.451	0.06
394.959	0.08
395.467	0.07
395.976	0.09
396.484	0.06
396.992	0.07
397.499	0.05
398.007	0.06
398.515	0.06
399.022	0.05
399.53	0.07
400.037	0.07
400.544	0.06
401.051	0.05
401.558	0.07
402.065	0.07
402.572	0.06
403.078	0.05
403.585	0.06
404.091	0.06
404.598	0.05
405.104	0.05
405.61	0.05
406.116	0.06
406.622	0.06
407.127	0.04
407.633	0.06
408.139	0.07
408.644	0.06
409.149	0.06
409.654	0.05
410.159	0.05
410.664	0.05
411.169	0.05
411.674	0.06
412.179	0.06
412.683	0.05
413.187	0.05
413.692	0.05
414.196	0.06
414.7	0.05
415.204	0.04
415.708	0.04
416.211	0.04
416.715	0.05
417.219	0.04
417.722	0.06
418.225	0.05
418.728	0.05
419.232	0.04
419.734	0.05
420.237	0.05
420.74	0.04
421.243	0.05
421.745	0.04
422.248	0.05
422.75	0.04
423.252	0.04
423.754	0.05
424.256	0.04
424.758	0.04
425.26	0.04
425.761	0.04
426.263	0.05
426.764	0.06
427.265	0.04
427.767	0.05
428.268	0.04
428.769	0.04
429.269	0.04
429.77	0.03
430.271	0.05
430.771	0.03
431.272	0.03
431.772	0.04
432.272	0.04
432.772	0.04
433.272	0.03
433.772	0.03
434.272	0.04
434.771	0.04
435.271	0.04
435.77	0.03
436.27	0.03
436.769	0.04
437.268	0.03
437.767	0.04
438.266	0.02
438.765	0.04
439.263	0.04
439.762	0.04
440.26	0.03
440.758	0.03
441.257	0.04
441.755	0.04
442.253	0.03
442.751	0.03
443.248	0.03
443.746	0.03
444.244	0.04
444.741	0.04
445.238	0.02
445.735	0.03
446.233	0.03
446.73	0.03
447.226	0.02
447.723	0.03
448.22	0.02
448.716	0.02
449.213	0.03
449.709	0.03
450.205	0.02
450.702	0.03
451.198	0.03
451.693	0.03
452.189	0.02
452.685	0.02
453.18	0.03
453.676	0.04
454.171	0.03
454.666	0.03
455.162	0.03
455.657	0.03
456.151	0.02
456.646	0.02
457.141	0.02
457.636	0.02
458.13	0.03
458.624	0.02
459.119	0.02
459.613	0.01
460.107	0.04
460.601	0.03
461.095	0.03
461.588	0.02
462.082	0.02
462.575	0.03
463.069	0.03
463.562	0.02
464.055	0.01
464.548	0.03
465.041	0.03
465.534	0.01
466.027	0.02
466.519	0.01
467.012	0.03
467.504	0.02
467.996	0.01
468.489	0.03
468.981	0.03
469.473	0.02
469.964	0.01
470.456	0.03
470.948	0.03
471.439	0.01
471.931	0.01
472.422	0.02
472.913	0.01
473.404	0.02
473.895	0.02
474.386	0.02
474.877	0.03
475.368	0.02
475.858	0.04
476.349	0.01
476.839	0.02
477.329	0.02
477.819	0.02
478.309	0.02
478.799	0.01
479.289	0.02
479.779	0.02
480.268	0.02
480.758	0.02
481.247	0.02
481.736	0
482.225	0.01
482.714	0.02
483.203	0.01
483.692	0
484.181	0.01
484.669	0.02
485.158	0.01
485.646	0.02
486.134	0.02
486.623	0.01
487.111	0.03
487.599	0
488.086	0
488.574	0.02
489.062	0.02
489.549	0.01
490.037	0.01
490.524	0.03
491.011	0.01
491.498	0.02
491.985	0.01
492.472	0.01
492.959	0.01
493.445	0.01
493.932	0.02
494.418	0.01
494.905	-0
495.391	0.01
495.877	0.02
496.363	0.01
496.849	0.02
497.335	0.01
497.82	0.02
498.306	0.02
498.791	0.03
499.277	0.01
499.762	0.01
500.247	0.01
500.732	0.01
501.217	0
501.702	0.01
502.186	0.02
502.671	-0
503.156	-0
503.64	0.01
504.124	0
504.608	0.02
505.092	0.01
505.576	0
506.06	0.02
506.544	0
507.028	0.02
507.511	0.01
507.994	0.02
508.478	0
508.961	0.01
509.444	0.01
509.927	0.01
510.41	0.01
510.893	0.02
511.375	0
511.858	0.01
512.34	0
512.823	0
513.305	0.01
513.787	0.01
514.269	0.01
514.751	0.01
515.233	0.02
515.714	-0
516.196	0.02
516.678	0.01
517.159	0.01
517.64	0.03
518.121	0.01
518.602	0.01
519.083	0.02
519.564	0.01
520.045	0.01
520.526	0.03
521.006	0.01
521.486	0.01
521.967	0.01
522.447	-0
522.927	-0
523.407	0.02
523.887	0.01
524.367	0
524.846	0.02
525.326	0.01
525.805	0.01
526.285	0.01
526.764	0.01
527.243	0.01
527.722	0.01
528.201	0.02
528.68	0.01
529.159	0.01
529.637	0.03
530.116	0.01
530.594	0.03
531.072	0.02
531.55	0.01
532.029	0.01
532.506	0.01
532.984	0.01
533.462	0
533.94	0.01
534.417	0.01
534.895	0.03
535.372	0.01
535.849	-0
536.326	0.01
536.803	-0.01
537.28	0
537.757	0.02
538.234	0.01
538.71	0.01
539.187	0.01
539.663	0.02
540.139	-0
540.616	0
541.092	0.02
541.568	0.01
542.043	0
542.519	0.01
542.995	0.01
543.47	0.01
543.946	-0
544.421	0
544.896	0.01
545.371	0.02
545.846	0.01
546.321	0.01
546.796	0.02
547.271	-0
547.745	0.02
548.22	0.02
548.694	0
549.168	0.01
549.642	0.02
550.116	0.01
550.59	0.01
551.064	0.01
551.538	0.01
552.011	0.02
552.485	0.01
552.958	0.01
553.432	0.01
553.905	0.01
554.378	0.01
554.851	0
555.324	0.01
555.797	0.01
556.269	-0
556.742	0.02
557.214	0.01
557.687	0
558.159	0.01
558.631	0.01
559.103	0
559.575	0
560.047	-0
560.519	0
560.99	0.01
561.462	0.01
561.933	-0
562.404	-0
562.876	-0
563.347	0.02
563.818	0.02
564.288	0.01
564.759	0
565.23	0.01
565.7	0.01
566.171	-0
566.641	-0
567.112	0
567.582	0.01
568.052	0.01
568.522	0.02
568.991	0.01
569.461	0
569.931	0
570.4	0
570.87	0.01
571.339	0.01
571.808	0.01
572.277	0.01
572.746	0
573.215	0.01
573.684	0.01
574.153	0.01
574.621	0
575.09	0.02
575.558	0.01
576.026	0.02
576.494	0.01
576.963	0.01
577.43	0.01
577.898	0.01
578.366	0.01
578.834	0.01
579.301	0.01
579.769	0.01
580.236	0.02
580.703	0.01
581.17	0.01
581.637	0.01
582.104	0
582.571	0.01
583.038	0
583.504	0.02
583.971	0
584.437	-0
584.903	0
585.37	0.01
585.836	0
586.302	0.01
586.767	0.01
587.233	0
587.699	0
588.164	0.02
588.63	0.01
589.095	0.01
589.56	-0
590.026	0
590.491	0.01
590.956	0.01
591.42	0
591.885	0.01
592.35	0.01
592.814	0.01
593.279	-0
593.743	0
594.207	0.01
594.671	0
595.135	0.01
595.599	0
596.063	0.02
596.526	0
596.99	0
597.454	-0
597.917	0
598.38	0.01
598.843	-0
599.306	0
599.769	0.01
600.232	0
600.695	0.01
601.158	-0.01
601.62	0
602.083	0.02
602.545	0.02
603.007	0.01
603.469	0.01
603.931	0.01
604.393	0.01
604.855	0.01
605.317	0
605.778	0.01
606.24	0.01
606.701	0.02
607.163	0
607.624	0
608.085	0.01
608.546	0.01
609.007	-0
609.467	0.01
609.928	0.01
610.389	0.01
610.849	0.01
611.31	0
611.77	-0
612.23	0.01
612.69	-0
613.15	0
613.61	0
614.07	0.01
614.529	0.01
614.989	0
615.448	0.02
615.908	-0
616.367	0.02
616.826	0.01
617.285	0.01
617.744	0.01
618.203	0.01
618.661	0
619.12	0
619.579	0.01
620.037	0.01
620.495	0.01
620.954	0.01
621.412	0
621.87	0
622.328	-0
622.785	0.01
623.243	0.01
623.701	0.01
624.158	0.02
624.616	0.01
625.073	-0
625.53	0.01
625.987	-0
626.444	0.01
626.901	0.02
627.358	0.01
627.814	0.01
628.271	0.01
628.727	0
629.184	-0
629.64	0
630.096	0.02
630.552	0.02
631.008	0.01
631.464	0.02
631.92	0
632.376	0
632.831	0.02
633.287	0.01
633.742	0.01
634.197	0
634.652	0.01
635.107	0.01
635.562	-0
636.017	0.01
636.472	0.01
636.926	0
637.381	0
637.835	0.02
638.29	0.02
638.744	0.01
639.198	0.01
639.652	0.02
640.106	0.01
640.56	0
641.014	0.01
641.467	0.02
641.921	0
642.374	-0
642.827	-0.01
643.281	-0.01
643.734	0.01
644.187	0.01
644.64	0.01
645.092	0.02
645.545	0.01
645.998	0.01
646.45	0.02
646.903	0
647.355	0.02
647.807	-0.01
648.259	0.01
648.711	0.02
649.163	-0
649.615	0
650.067	0.01
650.518	0.01
650.97	0.01
651.421	0.01
651.872	0.01
652.323	0.01
652.774	0.02
653.225	0.02
653.676	0.02
654.127	0.02
654.578	0
655.028	-0
655.479	0
655.929	0.01
656.379	0.02
656.83	0.02
657.28	0.01
657.73	-0.01
658.18	0.01
658.629	0.01
659.079	0.01
659.529	0.02
659.978	0
660.427	-0
660.877	0
661.326	0
661.775	0
662.224	0.01
662.673	-0.01
663.121	0.01
663.57	0.01
664.019	0.02
664.467	0
664.915	0.02
665.364	0.01
665.812	0.01
666.26	0
666.708	0.01
667.156	0.02
667.603	0.01
668.051	0.01
668.499	0.01
668.946	0.01
669.393	0.01
669.841	-0
670.288	0
670.735	0.01
671.182	0.01
671.629	0.01
672.075	0.01
672.522	-0
672.968	0
673.415	0
673.861	-0.01
674.308	0.02
674.754	-0
675.2	0.02
675.646	0.01
676.091	0
676.537	0.01
676.983	0.01
677.428	0.02
677.874	0.01
678.319	0.02
678.764	0
679.21	-0
679.655	0.01
680.1	0.01
680.544	0
680.989	-0
681.434	0
681.878	-0
682.323	0.01
682.767	0.02
683.211	-0
683.655	0.02
684.099	0
684.543	0
684.987	0
685.431	-0
685.875	0.01
686.318	-0
686.762	0.01
687.205	0.01
687.648	-0
688.091	0.01
688.534	0
688.977	0
689.42	0.02
689.863	0.01
690.306	0.01
690.748	0.02
691.191	0
691.633	0
692.075	0.01
692.517	0
692.959	0
693.401	0
693.843	0.01
694.285	0.01
694.727	0.01
695.168	0.02
695.61	0.01
696.051	0
696.492	0.01
696.933	0.01
697.374	0.01
697.815	0.02
698.256	0.01
698.697	-0.01
699.138	0
699.578	0.01
700.019	0
700.459	0
700.899	-0
701.339	0.01
701.779	-0
702.219	-0
702.659	0
703.099	0.01
703.539	0.01
703.978	-0
704.418	0.01
704.857	-0
705.296	0
705.736	-0.01
706.175	0
706.614	0.01
707.052	0.01
707.491	-0
707.93	0
708.368	0.01
708.807	0
709.245	0.01
709.684	0.01
710.122	0
710.56	0
710.998	0.01
711.436	0.02
711.874	0.01
712.311	-0
712.749	-0
713.186	0
713.624	0.01
714.061	0.01
714.498	0
714.935	0.01
715.372	-0.01
715.809	-0
716.246	0.01
716.683	0.01
717.119	0.01
717.556	0.01
717.992	0.01
718.429	0.01
718.865	0.01
719.301	0.01
719.737	-0
720.173	0.01
720.609	-0
721.044	0
721.48	0.01
721.916	0
722.351	0
722.786	0.01
723.222	0.01
723.657	0.01
724.092	0.01
724.527	0.01
724.962	0.01
725.396	0.01
725.831	0
726.265	0.01
726.7	0
727.134	0.01
727.569	-0
728.003	-0.01
728.437	0.01
728.871	-0.01
729.305	0.01
729.738	0.01
730.172	0.01
730.606	0
731.039	0
731.472	-0.01
731.906	0
732.339	0.01
732.772	0
733.205	0.01
733.638	0.01
734.071	0
734.503	0.01
734.936	0.01
735.368	0
735.801	0
736.233	0.01
736.665	-0
737.097	0.01
737.529	0.01
737.961	0.01
738.393	0.02
738.825	0.01
739.256	0.01
739.688	0.01
740.119	0.01
740.551	0.01
740.982	0.02
741.413	0.01
741.844	0
742.275	0.01
742.706	0.01
743.137	0.01
743.567	-0
743.998	0.01
744.428	0
744.859	0.02
745.289	0.01
745.719	0.01
746.149	0.01
746.579	0.01
747.009	-0
747.439	0
747.868	0.01
748.298	-0
748.727	0
749.157	0
749.586	-0
750.015	0
750.444	-0
750.873	0
751.302	0.01
751.731	0.01
752.16	0.01
752.588	0.01
753.017	0
753.445	0.01
753.874	0.01
754.302	0
754.73	0.01
755.158	0
755.586	0.01
756.014	0
756.442	0
756.869	0.01
757.297	0.01
757.724	0
758.152	0.01
758.579	0
759.006	0.01
759.433	0
759.86	-0
760.287	0
760.714	0.01
761.14	0.01
761.567	0.01
761.993	0
762.42	0.01
762.846	0.01
763.272	0
763.698	0.01
764.124	0.01
764.55	0.01
764.976	0.01
765.402	0.01
765.828	0.02
766.253	0.01
766.678	0.01
767.104	0.01
767.529	0.01
767.954	0.01
768.379	0
768.804	0.01
769.229	0.01
769.654	0.01
770.078	0.01
770.503	0
770.927	0.01
771.352	0
771.776	0.01
772.2	0.01
772.624	0
773.048	0.01
773.472	0.01
773.896	0
774.32	0.02
774.743	-0
775.167	0.01
775.59	0.01
776.014	0.01
776.437	0.01
776.86	0.01
777.283	0
777.706	0
778.129	0.01
778.552	-0
778.974	0
779.397	0
779.819	0
780.242	0.01
780.664	0
781.086	-0.01
781.508	0.01
781.93	-0
782.352	0.02
782.774	0.01
783.196	-0
783.617	0.01
784.039	-0.01
784.46	0.01
784.881	0
785.303	0
785.724	-0
786.145	0.01
786.566	-0
786.987	0
787.407	-0
787.828	0.01
788.248	0
788.669	-0
789.089	-0
789.51	0.01
789.93	0
790.35	0
790.77	0.01
791.19	0
791.61	-0
792.029	0
792.449	0
792.868	-0.01
793.288	0
793.707	-0
794.126	0.01
794.545	0.01
794.965	0
795.383	-0
795.802	0.01
796.221	0.01
796.64	0.01
797.058	0
797.477	0
797.895	0.01
798.313	0
798.732	0
799.15	0
799.568	-0
799.986	0
800.403	-0
800.821	0.01
801.239	0
801.656	0.01
802.074	0
802.491	-0.01
802.908	0.01
803.325	0
803.742	0.01
804.159	0.01
804.576	0.01
804.993	0.01
805.41	-0
805.826	-0
806.243	0.01
806.659	0
807.076	0
807.492	0.01
807.908	0
808.324	-0
808.74	0.01
809.156	-0
809.571	0.01
809.987	0
810.403	0
810.818	-0.01
811.233	0
811.649	0
812.064	-0
812.479	0.01
812.894	-0
813.309	0.01
813.724	0.01
814.138	0
814.553	-0
814.967	0.01
815.382	0
815.796	0.01
816.21	0
816.624	0
817.039	0
817.452	0
817.866	0
818.28	0
818.694	0.01
819.107	0
819.521	0.01
819.934	0
820.348	-0
820.761	0.01
821.174	0
821.587	0.01
822	0
822.413	0
822.825	0
823.238	-0.01
823.651	0.01
824.063	0
824.475	0
824.888	0
825.3	-0
825.712	0
826.124	-0
826.536	0
826.948	-0
827.359	0.01
827.771	0.01
828.182	0.01
828.594	0.01
829.005	0.01
829.416	0.01
829.828	0.02
830.239	0
830.65	0
831.06	-0.01
831.471	0.01
831.882	-0
832.293	0.01
832.703	-0.02
833.113	-0
833.524	0.01
833.934	-0.01
834.344	0.01
834.754	-0
835.164	0
835.574	-0
835.984	-0.01
836.393	0
836.803	0
837.212	-0
837.622	0
838.031	-0
838.44	-0.01
838.849	0.01
839.258	0.01
839.667	0.01
840.076	0.02
840.485	0.02
840.894	0
841.302	0
841.711	0
842.119	0.01
842.527	0.01
842.935	-0
843.344	0.01
843.752	0.01
844.159	-0.01
844.567	0
844.975	0.01
845.383	0.01
845.79	0.02
846.198	0.01
846.605	0.02
847.012	0.01
847.419	0.01
847.826	0.02
848.233	0
848.64	0.01
849.047	0.01
849.454	0.01
849.86	0.02
850.267	0
850.673	0.01
851.08	0
851.486	0.02
851.892	0.01
852.298	-0
852.704	-0
853.11	-0
853.516	0.01
853.922	-0.01
854.327	0
854.733	0.01
855.138	0.01
855.543	0
855.949	0
856.354	0.01
856.759	0
857.164	0
857.569	0
857.973	0
858.378	0.01
858.783	0
859.187	0.01
859.592	-0
859.996	0.01
860.4	0.01
860.804	0
861.208	0.01
861.612	-0.01
862.016	0
862.42	0
862.824	0.01
863.227	0.01
863.631	0.01
864.034	0.01
864.437	0
864.841	0
865.244	0
865.647	-0
866.05	-0
866.453	0
866.855	0.01
867.258	0
867.661	-0.01
868.063	0
868.466	-0
868.868	0
869.27	0.01
869.672	-0.01
870.074	0.01
870.476	0
870.878	0
871.28	-0
871.682	0
872.083	0.01
872.485	0.01
872.886	-0.01
873.287	0.01
873.689	0.01
874.09	0.01
874.491	-0
874.892	0
875.292	-0
875.693	0
876.094	-0.01
876.494	0
876.895	-0.01
877.295	0.01
877.696	0.01
878.096	0
878.496	-0
878.896	0
879.296	0
879.696	0
880.096	0
880.495	0.01
880.895	0
881.294	0
881.694	-0
882.093	-0.01
882.492	0
882.891	-0
883.291	-0
883.689	-0
884.088	-0
884.487	0
884.886	0.01
885.284	0
885.683	-0
886.081	0
886.48	0
886.878	-0
887.276	0
887.674	0
888.072	0.01
888.47	0
888.868	0
889.265	0
889.663	0
890.06	0.01
890.458	0
890.855	-0.01
891.252	0.01
891.65	-0
892.047	0
892.444	0
892.84	-0.01
893.237	0
893.634	0.01
894.031	0.01
894.427	0.01
894.823	-0
895.22	0.01
895.616	0.01
896.012	0
896.408	-0.01
896.804	0.01
897.2	0
897.596	0.02
897.992	0.01
898.387	-0
898.783	0.01
899.178	-0.01
899.574	0
899.969	0.01
900.364	-0
900.759	0.01
901.154	0.01
901.549	0
901.944	0.01
902.339	0
902.733	0.01
903.128	0
903.522	0
903.917	0
904.311	-0.01
904.705	0.01
905.099	0
905.493	0
905.887	0.01
906.281	0.01
906.675	-0
907.068	0.01
907.462	0
907.855	0.01
908.249	0.01
908.642	0
909.035	0
909.428	0
909.821	-0
910.214	0.01
910.607	-0
911	0.01
911.393	-0
911.785	0.01
912.178	0.01
912.57	-0
912.962	0
913.355	0.01
913.747	0
914.139	-0
914.531	0
914.923	0.02
915.314	-0
915.706	0.01
916.098	0.02
916.489	-0
916.881	0
917.272	0.01
917.663	0.01
918.054	0.01
918.445	0.01
918.836	0
919.227	0.01
919.618	0.01
920.009	0
920.399	0
920.79	-0
921.18	0
921.571	-0
921.961	-0.01
922.351	-0
922.741	-0.01
923.131	-0.01
923.521	0
923.911	0.01
924.301	0
924.69	0
925.08	0.01
925.47	-0
925.859	0.01
926.248	0.01
926.637	0.01
927.027	0
927.416	0
927.805	-0
928.193	0.01
928.582	0
928.971	-0
929.359	0
929.748	0
930.136	0.01
930.525	0
930.913	0.02
931.301	0.01
931.689	-0
932.077	-0
932.465	-0
932.853	0
933.241	-0.01
933.628	-0.01
934.016	0
934.403	-0
934.791	0
935.178	0.01
935.565	0.01
935.952	-0
936.339	0
936.726	0
937.113	-0.02
937.5	-0.01
937.886	0.02
938.273	0.01
938.659	0.03
939.046	0.01
939.432	-0
939.818	0.01
940.204	0.02
940.591	-0.01
940.976	0.04
941.362	0.01
941.748	0.01
942.134	0.02
942.519	0.02
942.905	-0.01
943.29	-0.01
943.676	0
944.061	0.03
944.446	0
944.831	0.01
945.216	0.01
945.601	0.03
945.986	-0.01
946.371	0.02
946.755	0
947.14	0.03
947.524	0.01
947.909	0.01
948.293	0.01
948.677	0.01
949.062	-0
949.446	-0.02
949.83	0.01
950.213	0.02
950.597	-0.02
950.981	0.01
951.364	-0.01
951.748	0.01
952.131	0.01
952.515	0
952.898	0.02
953.281	-0
953.664	-0.01
954.047	0.02
954.43	0.01
954.813	0.01
955.196	-0.01
955.578	0.01
955.961	0.01
956.343	0.02
956.726	0
957.108	0.01
957.49	-0
957.872	0.01
958.255	0.01
958.636	0.01
959.018	-0.01
959.4	0.02
959.782	0
960.163	0.01
960.545	0.01
960.926	-0
961.308	0
961.689	-0
962.07	0.01
962.451	-0.02
962.832	0
963.213	0.01
963.594	0
963.975	0.01
964.355	0.02
964.736	0.01
965.117	0
965.497	-0
965.877	0.02
966.257	0
966.638	0.01
967.018	-0
967.398	0.03
967.778	-0
968.157	-0
968.537	-0.01
968.917	0.02
969.296	-0
969.676	0.01
970.055	0
970.434	-0
970.814	0.01
971.193	-0
971.572	-0.01
971.951	0
972.329	-0.01
972.708	-0
973.087	0.01
973.465	-0.01
973.844	-0.01
974.222	-0.01
974.601	-0
974.979	-0.01
975.357	-0.01
975.735	0
976.113	0.01
976.491	0.03
976.869	0
977.247	0.02
977.624	0
978.002	0.01
978.379	0.03
978.757	0.02
979.134	0.01
979.511	0.01
979.888	0.01
980.266	0.02
980.643	0.01
981.019	0.01
981.396	0.01
981.773	0.01
982.15	0
982.526	0.01
982.903	0.02
983.279	0.02
983.655	0
984.031	-0.01
984.407	-0
984.784	0.01
985.159	0
985.535	0.02
985.911	0.01
986.287	0.01
986.662	0
987.038	0.01
987.413	0
987.789	0.03
988.164	-0.01
988.539	0.01
988.914	0.01
989.289	0.01
989.664	0.01
990.039	-0
990.414	-0
990.788	-0
991.163	0
991.538	-0.01
991.912	0
992.286	0.03
992.66	0.01
993.035	0.01
993.409	0
993.783	-0
994.157	-0
994.53	-0
994.904	0.01
995.278	0
995.651	0
996.025	0
996.398	0
996.772	0.03
997.145	0.01
997.518	0.02
997.891	-0
998.264	-0.02
998.637	0.01
999.01	0
999.382	0
999.755	-0
1000.128	0.01
1000.5	0.01
1000.872	-0.01
1001.245	0.01
1001.617	0
1001.989	0.01
1002.361	0.01
1002.733	0.01
1003.105	0.01
1003.477	0
1003.848	0.02
1004.22	0
1004.592	0.02
1004.963	0
1005.334	0.01
1005.706	-0.01
1006.077	0.02
1006.448	0.01
1006.819	0.01
1007.19	0.01
1007.561	0.01
1007.932	-0
1008.302	0.02
1008.673	-0
1009.044	0.01
1009.414	0.01
1009.784	-0.02
1010.155	-0
1010.525	0.02
1010.895	-0
1011.265	0
1011.635	0
1012.005	-0.01
1012.375	-0.02
1012.744	0
1013.114	0.01
1013.483	-0
1013.853	-0
1014.222	-0.01
1014.591	-0.01
1014.961	0.01
1015.33	-0.01
1015.699	-0
1016.068	0.01
1016.437	0.01
1016.805	0
1017.174	-0
1017.543	0
1017.911	-0.01
1018.28	-0.01
1018.648	-0.01
1019.016	0.01
1019.384	-0.01
1019.753	-0.01
1020.121	0.01
1020.488	0.01
1020.856	0.01
1021.224	-0.01
1021.592	0
1021.959	-0
1022.327	0
1022.694	0.01
1023.062	-0.01
1023.429	0.01
1023.796	0.01
1024.163	0.01
1024.53	-0
1024.897	0.01
1025.264	-0
1025.631	0.02
1025.998	0.02
1026.364	0.01
1026.731	-0
1027.097	-0.01
1027.464	0
1027.83	-0
1028.196	0.01
1028.562	-0.01
1028.928	-0.01
1029.294	0.01
1029.66	-0.01
1030.026	0.01
1030.391	0.01
1030.757	-0.03
1031.123	0.01
1031.488	0
1031.853	0
1032.219	-0.01
1032.584	0
1032.949	-0
1033.314	0.01
1033.679	0.01
1034.044	0.01
1034.409	0
1034.773	-0.02
1035.138	-0.01
1035.502	0.01
1035.867	-0
1036.231	0.02
1036.596	0
1036.96	0.01
1037.324	0.01
1037.688	0.01
1038.052	0.02
1038.416	0.01
1038.78	0.03
1039.143	-0.01
1039.507	0.01
1039.871	0.02
1040.234	0.01
1040.597	-0.02
1040.961	0.01
1041.324	0.01
1041.687	0
1042.05	0.02
1042.413	0.01
1042.776	-0
1043.139	-0.01
1043.502	-0.03
1043.864	-0
1044.227	-0.02
1044.589	0
1044.952	0.02
1045.314	0.01
1045.676	-0.01
1046.038	0.02
1046.4	-0.02
1046.762	0.03
1047.124	0.01
1047.486	-0
1047.848	-0.01
1048.21	-0
1048.571	0.01
1048.933	0.01
1049.294	0.01
1049.655	-0.01
1050.017	0
1050.378	0.02
1050.739	-0
1051.1	-0
1051.461	0
1051.822	0.01
1052.182	-0.04
1052.543	0.01
1052.904	-0
1053.264	-0
1053.625	0
1053.985	-0.02
1054.345	-0.01
1054.706	0.02
1055.066	0
1055.426	-0.02
1055.786	0.01
1056.145	-0
1056.505	0.01
1056.865	-0.02
1057.225	-0.02
1057.584	-0.01
1057.944	-0.03
1058.303	-0
1058.662	0.01
1059.021	0.01
1059.381	-0
1059.74	-0.03
1060.099	-0.01
1060.458	-0.01
1060.816	0
1061.175	0
1061.534	0.02
1061.892	0.01
1062.251	-0.04
1062.609	-0
1062.968	0.02
1063.326	0.03
1063.684	-0.02
1064.042	0.01
1064.4	0.03
1064.758	0.01
1065.116	0.01
1065.474	0.01
1065.831	0.01
1066.189	0.01
1066.546	0.01
1066.904	0.02
1067.261	-0.02
1067.618	0.03
1067.976	-0.02
1068.333	-0.01
1068.69	0.01
1069.047	-0.02
1069.404	-0.01
1069.76	0.01
1070.117	-0
1070.474	-0.01
1070.83	0.02
1071.187	-0.02
1071.543	-0.02
1071.899	0.03
1072.256	-0.01
1072.612	-0.04
1072.968	0.02
1073.324	0.03
1073.68	0.01
1074.036	0.02
1074.391	-0
1074.747	-0
1075.103	-0.02
1075.458	-0.03
1075.813	0.07
1076.169	-0.01
1076.524	0.01
1076.879	-0
1077.234	0.01
1077.589	0.02
1077.944	-0.01
1078.299	-0
1078.654	-0.04
1079.009	-0.01
1079.363	0.03
1079.718	-0.02
1080.072	0.02
1080.427	-0.03
1080.781	-0.03
1081.135	0.02
1081.489	0.01
1081.843	0.03
1082.197	0.01
1082.551	0.03
1082.905	0
1083.259	-0.01
1083.613	0.02
1083.966	-0.02
1084.32	-0.02
1084.673	-0.02
1085.026	0.02
1085.38	-0.03
1085.733	0.03
1086.086	-0.01
1086.439	0.01
1086.792	0.05
1087.145	0.02
1087.498	0.02
1087.85	0.02
1088.203	-0.04
1088.555	0.01
1088.908	0.06
1089.26	0
1089.613	-0.02
1089.965	0.02
1090.317	0.01
1090.669	0.03
1091.021	-0
1091.373	-0.04
1091.725	-0.01
1092.076	0.03
1092.428	-0.01
1092.78	-0
1093.131	0.01
1093.483	-0.05
1093.834	0.03
1094.185	0.06
1094.537	0
1094.888	-0.01
1095.239	0.02
1095.59	-0.03
1095.941	-0.02
1096.291	-0.01
1096.642	-0.04
1096.993	-0.05
1097.343	0.01
1097.694	0.01
1098.044	-0.02
1098.394	0
1098.745	0.01
1099.095	-0.02
1099.445	-0
1099.795	0.03
1100.145	-0.01
1100.495	0.01
1100.845	0.06
1101.194	-0.03
1101.544	0.01
1101.893	-0.02
1102.243	0.04
1102.592	-0.05
1102.942	0.04
1103.291	0.05
1103.64	0.02
1103.989	0.03
1104.338	-0.04
1104.687	-0.05
1105.036	-0.01
1105.384	0.03
1105.733	0.02
1106.082	-0.03
1106.43	0.03
1106.779	-0.04
1107.127	-0
1107.475	-0.04
1107.823	-0
1108.172	-0.04
1108.52	-0.14
1108.868	-0
1109.215	-0
1109.563	-0.18
