<xrdMeasurements xmlns="http://www.xrdml.com/XRDMeasurement/2.1" xmlns:xsi="http://www.w3.org/2001/XMLSchema-instance" xsi:schemaLocation="http://www.xrdml.com/XRDMeasurement/2.1 http://www.xrdml.com/XRDMeasurement/2.1/XRDMeasurement.xsd" status="Completed">
	<comment>
		<entry>Configuration=AP HTK 1200N oven with z-axis, Owner=user-1, Creation date=24.06.2019 13:33:55</entry>
		<entry>Goniometer=Omega/2Theta; Minimum step size 2Theta:0.0001; Minimum step size Omega:0.0001</entry>
		<entry>Sample stage=AP HTK 1200N oven with z-axis; Minimum step size Z:0.001</entry>
		<entry>Diffractometer system=EMPYREAN</entry>
		<entry>Measurement program=E:\XRD Programs\Leila\HTC-1200N\LAP-12-Thermo-XRD-5-90-45min.xrdmp, Identifier={7919BF4C-DDCA-4EAF-844C-147204A2E96A}</entry>
		<entry>Batch program=E:\XRD Programs\Leila\HTC-1200N\LAP-37cd-thermo-XRD-batch-25-400C.xrdmp, Identifier={133F67DC-2F10-424F-8341-D0703B7CEF2A}</entry>
		<entry>Height control correction model name=AP HTK 1200N Oven (air)</entry>
	</comment>
	<sample type="To be analyzed">
		<id></id>
		<name></name>
		<preparedBy></preparedBy>
	</sample>
	<xrdMeasurement measurementType="Scan" status="Completed" sampleMode="Reflection">
		<comment>
			<entry>PHD Lower Level = 4.02 (keV), PHD Upper Level = 12.88 (keV)</entry>
		</comment>
		<usedWavelength intended="K-Alpha 1">
			<kAlpha1 unit="Angstrom">1.5405980</kAlpha1>
			<kAlpha2 unit="Angstrom">1.5444260</kAlpha2>
			<kBeta unit="Angstrom">1.3922500</kBeta>
			<ratioKAlpha2KAlpha1>0.0000</ratioKAlpha2KAlpha1>
		</usedWavelength>
		<incidentBeamPath>
			<radius unit="mm">240.00</radius>
			<xRayTube id="1010048" name="Empyrean Cu LFF HR (9430 033 7310x) DK422082">
				<tension unit="kV">40.0</tension>
				<current unit="mA">40.0</current>
				<anodeMaterial>Cu</anodeMaterial>
				<focus type="Line">
					<length unit="mm">12.0</length>
					<width unit="mm">0.4</width>
					<takeOffAngle unit="deg">6.0</takeOffAngle>
				</focus>
			</xRayTube>
			<monochromator id="23010013" name="Inc. beam Johansson 1xGe111 Cu/Co" hybrid="false">
				<crystal type="Symmetric" shape="Curved">Ge</crystal>
				<numberOfReflections>1</numberOfReflections>
				<hkl>
					<h>1</h>
					<k>1</k>
					<l>1</l>
				</hkl>
			</monochromator>
			<mask id="22080003" name="Fixed incident beam mask 15 mm">
				<distanceToSample unit="mm">125.00</distanceToSample>
				<width unit="mm">11.60</width>
			</mask>
			<antiScatterSlit id="22010002" name="Fixed slit 2Â°" xsi:type="fixedAntiScatterSlitType">
				<height unit="mm">3.03</height>
			</antiScatterSlit>
			<divergenceSlit id="22010012" name="Programmable divergence slit" xsi:type="automaticDivergenceSlitType">
				<distanceToSample unit="mm">157.00</distanceToSample>
				<irradiatedLength unit="mm">10.0</irradiatedLength>
				<offset unit="mm">0.00</offset>
			</divergenceSlit>
		</incidentBeamPath>
		<diffractedBeamPath>
			<radius unit="mm">240.00</radius>
			<antiScatterSlit id="22060009" name="Programmable anti-scatter slit" xsi:type="automaticAntiScatterSlitType">
				<observedLength unit="mm">10.0</observedLength>
				<offset unit="mm">0.00</offset>
			</antiScatterSlit>
			<sollerSlit id="21020003" name="Large Soller slits 0.04 rad.">
				<opening unit="rad">0.0400</opening>
			</sollerSlit>
			<detector id="7010019" name="PIXcel1D-Medipix3 detector" xsi:type="rtmsDetectorType">
				<phd unit="%">
					<lowerLevel>25.0</lowerLevel>
					<upperLevel>80.0</upperLevel>
				</phd>
				<mode>Scanning</mode>
				<activeLength unit="deg">3.3482</activeLength>
			</detector>
		</diffractedBeamPath>
		<scan appendNumber="0" mode="Continuous" scanAxis="Gonio" status="Completed">
			<header>
				<startTimeStamp>2023-03-20T13:19:14+01:00</startTimeStamp>
				<endTimeStamp>2023-03-20T14:03:19+01:00</endTimeStamp>
				<author>
					<name>User</name>
				</author>
				<source>
					<applicationSoftware version="6.1a">Data Collector</applicationSoftware>
					<instrumentControlSoftware version="8.1  20181218">EMPYREAN</instrumentControlSoftware>
					<instrumentID>0000000011226268</instrumentID>
				</source>
			</header>
			<dataPoints>
				<positions axis="2Theta" unit="deg">
					<startPosition>5.00116514</startPosition>
					<endPosition>89.99348491</endPosition>
				</positions>
				<positions axis="Omega" unit="deg">
					<startPosition>2.50058257</startPosition>
					<endPosition>44.99674246</endPosition>
				</positions>
				<positions axis="Z" unit="mm">
					<commonPosition>8.780</commonPosition>
				</positions>
				<commonCountingTime unit="seconds">97.920</commonCountingTime>
				<counts unit="counts">90 99 98 75 84 95 87 101 102 96 87 86 86 90 92 105 86 96 82 101 100 86 70 104 77 97 85 72 111 97 79 98 118 102 104 102 89 110 102 107 106 104 89 105 102 118 105 101 125 119 122 143 127 139 126 141 137 145 130 175 152 147 160 171 189 165 202 188 207 200 248 223 250 285 291 294 335 317 358 397 392 437 467 514 551 554 575 597 667 752 784 865 988 1007 1057 1223 1390 1485 1686 1854 2089 2401 2726 3106 3714 4452 5657 7949 11519 16397 18240 12207 4921 1986 955 561 332 342 271 230 229 241 204 234 209 205 231 234 214 245 228 223 236 213 228 278 234 264 245 302 279 267 280 277 242 305 269 274 303 294 315 312 327 315 327 334 366 376 414 370 392 389 448 470 439 457 475 480 506 551 593 560 617 675 669 796 781 920 962 1098 1338 1506 1740 2133 2524 3043 2709 1507 753 401 296 236 240 199 183 177 214 189 193 160 160 175 161 134 166 156 144 144 157 151 130 132 142 119 129 139 136 120 126 117 126 124 129 105 129 120 116 108 118 95 121 96 113 131 104 128 122 98 108 110 122 116 89 120 110 101 98 112 104 111 102 121 109 94 113 120 117 110 111 96 107 126 143 124 94 100 105 93 97 107 108 122 120 100 116 92 109 102 98 95 85 112 96 100 91 94 96 83 96 96 107 83 92 107 103 95 104 92 97 91 100 101 97 112 91 107 99 108 116 90 84 91 68 91 102 99 117 88 94 109 94 92 95 102 105 91 118 105 89 87 105 92 99 100 88 114 93 102 95 92 94 109 91 105 110 111 87 93 85 94 82 96 106 95 99 94 95 96 116 108 90 91 112 82 83 107 98 100 81 116 105 93 115 72 95 89 100 118 113 99 80 103 101 99 105 83 90 84 97 85 110 99 96 114 94 118 109 120 108 106 109 101 93 111 103 112 115 118 112 107 139 117 132 139 163 158 190 194 289 315 293 229 151 123 112 105 94 85 88 107 102 108 93 89 95 86 103 111 89 86 85 89 95 88 90 105 82 108 92 116 92 98 109 85 95 99 86 87 99 95 100 93 106 105 99 93 80 105 114 92 92 97 89 74 84 101 101 105 100 97 113 100 101 84 109 81 89 102 100 103 91 90 89 103 100 98 99 93 96 88 104 113 105 104 81 101 98 91 96 106 112 90 105 108 122 100 97 104 114 80 89 110 79 87 97 97 87 103 109 89 93 97 100 95 112 115 103 126 117 119 120 126 148 140 143 158 169 203 217 207 246 285 318 392 456 571 716 868 953 793 432 219 137 109 129 100 100 94 120 132 95 98 103 110 143 106 145 150 158 139 140 190 167 203 230 236 265 356 358 439 512 583 693 848 1046 1415 1773 2442 3514 4940 5656 4701 2449 869 357 208 167 140 124 134 141 112 103 95 81 107 88 106 98 108 93 99 93 106 86 87 103 84 101 86 86 109 99 99 106 84 85 97 93 109 99 89 90 94 84 74 84 95 80 99 103 87 107 97 91 83 109 95 122 104 111 92 91 99 111 120 116 104 130 113 124 117 158 158 167 196 237 260 280 270 228 164 131 115 101 97 98 92 78 86 74 99 89 102 91 100 98 96 91 84 87 69 93 112 97 99 77 88 104 100 76 103 89 77 105 89 86 79 95 86 81 102 72 91 108 81 99 101 99 96 86 110 107 119 123 113 115 115 155 168 164 181 238 285 298 349 435 530 646 825 976 1217 1382 1100 744 333 168 114 80 91 93 93 80 102 90 88 79 99 91 83 86 83 88 76 70 64 78 72 78 72 70 88 97 98 89 73 75 82 66 81 73 82 101 98 87 87 82 68 66 70 68 71 86 87 90 83 93 89 77 78 73 86 74 74 76 72 75 96 88 98 81 77 100 93 84 70 108 89 76 81 79 78 77 73 75 77 81 85 70 90 97 92 88 101 97 98 101 105 138 122 133 165 193 200 228 211 145 115 96 73 76 75 80 92 81 80 98 77 108 95 98 96 102 91 113 109 111 135 174 204 186 237 366 411 517 603 759 658 541 323 150 98 75 90 80 89 75 71 87 73 65 86 80 77 85 81 88 86 85 69 86 92 82 74 83 73 119 103 91 113 90 73 78 89 78 81 78 69 81 72 64 62 80 72 74 81 84 63 77 82 67 69 60 85 103 54 73 70 77 69 64 77 65 57 70 75 81 67 70 76 63 58 61 61 75 77 74 78 80 62 85 60 69 61 69 81 80 76 53 56 76 62 70 76 90 70 58 78 62 69 64 74 62 66 58 70 80 69 66 66 75 81 67 76 64 79 70 71 93 56 68 70 55 67 66 72 85 66 76 75 75 75 80 76 76 73 75 71 59 72 59 81 78 76 66 70 81 54 75 73 73 71 79 64 67 69 71 76 71 74 95 69 71 82 103 101 110 114 135 159 171 219 219 264 360 393 356 318 194 114 103 88 54 68 68 84 76 73 66 61 78 68 95 95 98 108 117 111 129 147 173 202 230 285 276 172 153 88 92 75 65 79 68 59 68 64 75 67 55 69 72 67 80 58 75 69 72 80 43 61 59 59 67 58 57 57 57 65 64 72 79 70 59 68 66 71 69 68 73 61 72 74 89 82 75 68 70 90 87 80 71 72 85 46 64 65 57 62 46 57 51 43 72 63 73 57 58 54 62 73 68 66 74 74 58 88 72 68 65 72 75 76 56 70 53 91 53 66 56 68 67 62 75 66 63 55 59 59 59 71 66 71 80 62 55 77 68 63 74 63 70 86 94 94 75 94 103 103 113 133 154 180 221 298 392 438 402 266 203 121 86 67 72 88 66 79 81 61 74 73 61 72 74 53 75 59 68 56 66 61 72 63 57 63 68 57 67 61 67 66 75 64 51 51 65 57 79 77 50 49 66 72 78 78 70 91 77 84 86 75 71 69 71 82 83 78 78 98 99 125 128 145 208 271 275 397 494 581 821 930 1021 810 541 245 132 100 90 102 97 106 116 140 152 180 216 264 317 429 580 701 943 1267 1583 1804 2054 1730 1083 506 232 123 99 89 97 81 61 64 62 76 56 74 69 81 59 56 61 59 62 78 58 72 82 73 60 60 64 73 64 69 63 81 77 67 78 76 57 80 83 73 86 82 102 108 93 84 78 69 71 63 80 62 73 69 66 66 76 78 62 66 69 75 70 65 63 65 68 65 53 60 74 59 48 61 52 65 69 60 54 73 63 74 65 60 81 76 70 90 86 72 63 92 81 64 53 55 66 65 71 70 83 62 61 81 94 77 96 113 122 198 209 216 221 204 149 115 89 70 74 86 67 58 55 76 75 57 63 69 73 75 71 81 88 74 79 72 76 56 61 71 63 70 66 60 61 81 69 82 107 108 110 140 181 210 204 281 321 347 274 176 102 78 63 67 65 56 54 75 62 51 67 65 52 69 69 82 69 70 60 68 66 80 65 65 56 55 68 54 58 76 59 80 68 59 57 67 64 50 56 59 76 76 64 81 66 60 60 62 67 54 61 63 51 52 79 69 75 65 69 80 70 87 72 64 61 69 59 50 71 65 75 80 61 30 63 57 53 75 74 71 64 55 64 63 56 46 71 66 62 67 66 54 65 81 84 83 103 118 121 169 182 286 372 441 473 476 337 180 118 76 82 78 57 63 64 59 56 81 67 54 67 63 81 69 72 74 77 62 63 75 75 68 77 70 68 80 83 78 98 105 118 149 143 211 248 250 237 202 146 91 106 96 108 109 153 167 185 263 322 443 601 811 1074 1364 1748 1986 1970 1581 928 429 199 160 122 113 93 109 88 108 101 110 90 119 158 165 165 234 228 183 134 106 84 78 70 86 79 68 83 68 83 71 73 105 94 104 117 131 120 125 95 98 66 80 63 72 57 74 74 76 73 63 76 88 87 101 93 72 86 74 83 81 68 64 82 80 91 69 81 74 86 72 76 74 80 84 76 94 93 100 75 103 101 123 125 119 139 144 160 180 223 277 402 463 572 762 859 879 828 569 319 247 168 192 165 157 196 176 192 211 240 268 294 321 372 416 494 606 771 827 1065 1349 1841 2383 3226 3992 5227 6706 8369 9124 8651 6529 3947 2166 1322 905 711 583 487 432 371 314 296 288 281 276 280 342 396 455 484 661 786 970 1065 1059 836 511 295 180 144 126 113 114 89 107 108 88 96 97 75 88 79 86 75 89 89 83 75 91 75 102 74 83 85 84 81 93 88 88 109 121 110 95 91 94 80 76 77 91 70 86 79 80 93 91 105 132 130 173 152 161 158 125 93 70 54 62 62 54 71 55 54 57 57 60 71 63 64 63 57 66 63 72 67 78 92 112 111 133 173 274 242 323 464 602 758 846 808 679 414 188 90 101 89 66 61 65 56 42 59 59 59 53 57 53 62 60 65 67 61 58 56 64 65 66 66 62 59 66 55 80 63 68 81 59 62 56 63 57 59 46 63 64 78 59 75 82 72 85 99 118 122 116 85 94 69 82 82 97 116 131 151 187 278 342 453 672 780 920 923 723 475 193 111 95 74 74 79 91 90 113 109 161 146 192 224 250 229 187 129 84 60 60 59 41 49 54 40 60 46 55 55 67 40 44 54 66 36 42 57 49 47 47 52 43 49 51 64 58 34 47 54 60 45 51 48 65 72 64 64 80 106 118 156 219 263 379 420 522 467 438 270 160 93 66 67 57 45 51 75 66 65 50 63 64 36 54 50 54 66 43 56 45 55 56 48 54 52 72 74 86 87 82 88 77 80 64 68 77 79 89 86 149 152 194 282 364 525 683 991 1129 1193 918 506 234 140 87 84 105 101 122 148 188 245 279 380 442 471 395 313 202 96 64 59 58 62 68 60 75 64 78 106 124 127 120 126 100 75 59 52 53 41 65 55 56 58 56 65 85 64 61 86 80 73 72 53 44 43 57 57 44 35 36 61 52 42 61 57 41 43 34 39 51 56 44 48 45 54 56 54 42 49 49 50 38 46 46 55 46 54 53 40 49 46 52 47 51 46 47 64 51 42 49 61 49 54 54 42 61 51 57 57 58 78 96 101 118 97 84 90 93 102 115 153 170 230 328 469 534 750 970 1257 1417 1438 1243 788 399 181 93 85 69 59 82 60 60 66 83 71 74 70 85 58 57 47 45 53 54 43 49 47 36 48 45 48 46 37 50 44 42 38 49 57 53 53 54 51 60 63 47 77 80 85 68 75 71 43 39 37 50 47 42 63 43 51 46 57 52 48 57 60 62 103 92 105 136 147 220 287 453 589 707 978 1112 1178 1028 607 306 165 86 69 68 76 68 68 78 82 74 74 72 94 85 56 52 57 55 46 61 64 83 73 78 99 109 136 128 127 111 88 72 76 60 40 60 63 48 57 78 101 91 110 114 113 67 53 48 37 39 34 46 44 38 43 52 56 50 36 29 47 46 36 48 51 52 53 61 59 44 64 80 82 89 98 102 67 67 53 60 53 60 79 81 96 106 153 159 193 187 197 153 93 64 39 49 43 43 48 50 43 43 37 39 36 47 55 55 59 43 61 52 63 81 109 124 111 186 220 242 208 204 127 90 59 70 41 35 50 62 41 53 38 44 45 37 59 37 35 44 41 43 61 57 54 46 51 55 60 58 58 70 65 72 82 119 156 146 222 320 424 566 719 923 1013 1182 1042 680 355 159 102 114 115 113 128 182 211 237 333 374 350 331 230 140 88 62 48 64 71 59 70 73 101 85 86 104 81 94 58 51 41 52 58 48 48 43 57 37 55 40 44 45 39 52 60 54 35 52 35 43 42 44 32 43 42 40 51 47 58 54 46 75 49 69 69 103 103 106 115 139 127 94 61 63 59 49 50 47 65 78 87 109 112 116 125 119 66 61 56 51 40 53 57 77 72 84 85 107 110 98 102 69 76 66 63 63 80 81 115 116 152 208 187 204 181 133 97 104 112 133 167 225 312 431 524 677 966 1181 1170 910 500 220 110 74 50 46 42 46 43 54 51 49 68 53 59 49 49 49 48 68 73 86 92 110 150 128 152 138 98 83 61 51 50 47 56 46 26 46 38 38 43 38 41 35 46 49 35 40 42 50 43 44 42 41 43 34 42 37 43 41 23 33 51 42 41 41 40 41 38 36 49 37 39 28 44 41 48 53 54 63 58 49 65 66 61 37 41 37 44 37 37 59 50 54 31 58 56 64 68 83 75 75 78 114 99 178 170 267 325 427 475 499 455 286 166 97 60 77 57 58 65 104 80 116 124 114 100 83 54 47 45 48 37 50 52 50 48 40 40 56 39 34 50 46 38 43 46 35 39 48 37 37 46 47 42 35 41 46 47 38 50 35 43 28 35 39 44 35 29 36 40 37 44 49 44 60 39 82 54 65 73 81 62 59 70 62 63 76 90 110 153 176 227 225 260 205 185 150 134 163 173 221 337 406 581 742 883 1049 1009 827 468 241 106 97 57 49 48 42 46 57 48 55 46 51 50 46 50 41 50 49 55 62 58 85 74 70 59 65 61 54 71 65 81 88 95 92 127 130 149 156 116 72 40 51 48 38 39 51 52 56 52 40 68 52 61 80 92 91 139 124 173 230 297 370 447 488 410 285 165 101 76 63 76 77 98 80 125 134 142 136 122 82 71 59 48 62 60 62 47 55 77 74 88 110 112 130 133 183 244 335 473 598 762 1035 1187 1284 1085 788 428 280 178 141 164 228 244 332 381 439 538 481 393 218 127 94 75 53 60 57 59 70 80 81 89 67 61 50 50 46 43 53 61 67 77 80 69 84 69 54 48 55 47 46 37 47 59 49 71 55 63 73 77 88 92 152 164 243 336 362 466 612 760 710 686 486 285 140 111 88 73 76 87 114 138 163 141 136 108 82 88 65 67 73 67 75 84 104 145 109 130 122 111 92 91 104 117 140 171 201 230 304 275 265 191 127 103 98 93 103 152 172 208 230 288 271 238 164 90 74 61 56 52 64 56 55 57 67 63 58 57 46 75 55 72 39 51 49 56 83 71 71 79 58 50 51 43 40 29 41 52 52 38 50 49 58 57 80 61 81 97 94 137 157 187 189 262 236 176 112 82 56 63 72 54 76 91 80 87 92 93 65 70 59 55 57 35 53 76 69 88 88 83 73 71 72 72 74 95 90 136 149 188 259 275 295 264 162 108 78 67 60 79 100 77 110 104 94 106 90 72 85 94 119 126 119 168 220 261 279 263 230 196 118 93 60 68 79 76 82 98 117 117 91 85 66 68 62 65 69 81 58 84 65 82 78 82 80 76 80 87 108 110 106 108 98 117 129 148 162 159 179 186 211 273 295 331 426 467 579 755 930 1218 1467 1883 2458 3043 3708 4440 4964 4808 4111 2979 1954 1244 828 637 461 381 354 284 263 221 194 193 168 162 151 141 117 106 97 98 89 83 107 101 86 79 75 82 97 89 88 76 83 89 97 97 99 86 93 71 82 66 70 59 80 79 86 87 99 81 91 82 75 59 55 57 53 55 51 59 46 58 48 41 53 40 53 45 45 61 51 54 61 57 59 60 61 61 56 75 74 74 70 118 99 124 97 88 64 69 41 51 55 44 66 65 77 83 62 86 86 108 132 141 173 246 308 381 454 568 549 442 318 216 196 177 200 262 303 369 472 512 511 438 304 157 112 81 64 64 57 70 63 80 85 75 61 60 53 44 42 48 46 51 49 52 45 46 45 30 50 36 57 54 47 43 56 50 49 75 92 102 106 141 185 182 241 345 413 466 510 473 327 204 117 85 60 65 61 60 69 57 60 74 59 55 53 64 78 75 89 89 99 121 154 138 114 143 145 163 233 310 386 498 563 674 653 529 360 250 118 82 70 54 45 46 53 46 42 39 44 48 44 49 70 56 76 75 95 102 83 84 61 66 60 73 69 68 74 99 101 108 90 92 73 51 54 34 34 35 35 35 40 37 38 49 47 56 55 58 62 93 113 133 116 143 137 110 67 57 43 50 28 36 28 54 52 56 49 42 35 46 43 39 40 55 93 75 88 61 54 75 55 49 49 64 70 78 93 109 120 110 107 74 59 70 63 77 88 93 108 107 120 106 83 79 54 80 45 53 58 72 75 86 90 90 58 59 68 71 51 76 81 87 92 99 85 84 73 59 29 42 37 40 32 27 39 32 34 39 32 41 31 59 38 34 38 31 41 44 48 48 34 44 44 32 42 50 57 67 64 78 52 56 56 48 63 55 86 88 96 92 99 104 73 65 67 65 84 115 143 180 169 176 173 133 92 57 57 45 56 28 39 37 49 44 38 43 55 40 50 69 73 67 98 89 108 84 86 67 57 43 40 44 38 36 40 67 55 58 39 46 45 39 26 21 47 49 34 35 36 46 31 49 38 44 63 68 86 78 109 120 104 89 85 55 46 43 39 39 36 46 43 40 47 52 44 44 56 74 78 104 104 112 125 102 76 71 55 79 75 80 87 90 103 108 99 108 77 98 94 124 129 205 204 200 200 212 143 110 74 91 78 63 77 77 92 84 79 73 60 54 48 63 57 69 63 79 68 56 76 55 49 44 44 40 40 45 46 60 45 55 66 65 76 88 115 137 178 206 233 256 233 141 120 111 70 90 119 110 114 121 148 115 107 87 76 70 54 69 91 73 100 88 111 156 164 226 268 315 429 520 601 727 798 800 614 425 251 203 150 168 172 189 213 235 211 199 144 90 83 72 77 71 80 68 74 79 85 60 76 64 69 80 81 73 89 102 107 93 89 76 54 53 43 42 66 45 60 65 68 72 75 84 90 110 107 129 159 184 184 203 139 127 93 91 103 119 107 132 161 162 148 124 126 152 130 126 123 158 157 156 196 235 292 334 362 401 538 677 815 1042 1275 1509 1752 2116 2330 2570 2545 2517 2111 1501 1119 745 620 484 346 315 226 206 161 175 147 151 130 131 148 110 85 96 81 74 61 75 85 90 102 93 87 86 62 62 72 76 66 72 67 80 76 88 107 119 150 194 242 278 318 374 397 335 257 171 118 95 102 81 78 112 129 119 105 97 74 63 83 70 72 99 111 105 121 121 103 119 118 139 157 200 238 288 263 278 263 174 118 75 59 58 45 34 48 39 35 50 46 38 41 31 46 32 48 46 44 59 60 74 53 54 69 56 74 90 94 128 95 85 44 35 47 33 29 29 33 41 38 25 30 41 33 38 30 42 38 45 38 47 38 47 36 34 39 48 42 68 68 66 67 56 50 38 49 60 54 54 67 71 60 67 74 77 77 76 74 117 113 138 150 161 154 151 146 171 168 194 213 289 341 374 429 340 270 180 104 80 60 75 59 71 65 73 55 47 44 41 51 49 48 53 45 53 68 43 35 36 45 37 39 35 21 37 29 24 29 36 35 50 45 33 48 44 55 46 49 53 46 78 96 71 129 112 122 133 144 115 102 86 79 89 102 129 132 160 153 142 103 73 53 51 57 80 75 97 94 107 87 76 83 120 126 156 170 224 224 239 202 174 121 84 70 60 58 56 66 42 66 67 51 70 61 68 79 89 88 87 92 98 77 59 51 25 33 23 29 31 32 42 21 32 24 41 39 28 32 33 35 34 29 41 32 43 46 39 53 52 56 61 53 73 49 65 55 58 62 74 92 74 91 118 128 141 181 208 242 294 337 415 496 459 431 324 194 126 107 115 92 129 126 117 121 115 69 48 46 47 39 47 43 47 54 35 52 42 28 50 39 43 47 38 55 45 47 37 26 42 49 53 65 61 85 69 104 125 149 190 209 290 333 400 450 435 432 278 206 128 103 70 67 75 64 73 78 74 64 64 61 39 60 51 70 76 69 85 90 103 121 136 184 206 207 281 327 310 216 117 81 61 48 38 38 39 36 31 42 33 34 34 41 38 31 38 48 68 44 51 48 51 50 45 63 69 75 71 74 65 56 44 35 36 41 29 22 32 29 45 29 33 31 32 24 46 36 55 61 36 44 51 64 57 63 87 90 96 100 86 78 63 78 48 40 47 61 43 59 73 85 84 103 114 131 187 193 220 284 265 239 168 106 90 57 48 53 54 55 57 40 63 48 57 61 80 88 94 110 98 103 91 67 56 47 49 55 31 32 35 44 21 44 37 40 43 26 43 37 35 41 36 56 56 56 69 80 95 136 115 145 112 114 75 56 42 35 42 34 47 42 28 47 37 35 46 50 52 66 59 78 70 55 55 48 51 44 77 71 79 86 89 84 99 96 106 113 142 124 178 185 202 145 143 101 90 94 90 70 96 96 91 68 58 64 50 44 48 62 73 73 78 66 63 47 39 32 27 38 37 39 37 28 42 35 42 29 47 66 59 58 60 64 61 45 43 58 43 37 36 48 44 58 50 51 43 34 48 43 46 62 62 72 82 90 106 106 135 153 196 209 225 229 257 151 132 113 122 119 167 181 182 147 138 114 80 64 39 25 31 45 23 32 35 47 29 27 53 47 60 49 75 65 53 52 33 33 33 28 40 37 32 21 29 35 20 32 29 37 29 35 38 37 38 34 52 41 71 57 68 51 74 76 81 66 51 45 56 53 65 68 60 82 67 89 88 81 103 107 136 155 175 189 164 132 108 56 57 48 28 34 31 25 30 44 30 25 42 33 58 70 80 90 72 59 58 50 61 47 60 53 42 56 40 43 34 33 29 45 42 22 40 29 48 47 55 61 72 76 88 116 113 114 102 75 55 49 48 42 35 39 46 58 48 42 46 57 49 53 52 67 64 81 73 66 69 68 62 91 82 95 99 116 99 78 54 51 43 38 31 42 40 24 35 36 38 46 45 53 43 46 55 59 46 32 28 39 42 31 34 34 40 43 26 42 34 30 39 33 45 43 35 39 38 64 62 72 79 98 139 129 117 131 107 84 66 56 42 51 64 55 75 53 59 50 51 50 55 66 85 96 82 108 76 89 117 98 123 120 147 175 169 151 137 113 69 66 55 67 53 60 73 63 58 55 38 36 47 35 42 36 31 42 46 38 52 46 42 51 63 71 48 52 46 38 37 33 32 27 44 35 35 32 44 26 36 37 46 37 40 39 44 32 47 46 42 50 53 48 44 47 47 56 50 67 51 62 78 74 92 99 127 111 128 165 172 187 228 249 319 355 441 484 516 603 591 602 471 395 358 304 215 182 134 108 97 114 98 89 82 88 75 80 46 42 52 44 53 38 34 41 42 41 43 47 29 43 46 46 49 42 41 46 44 52 50 62 69 54 63 49 50 35 39 40 50 51 41 45 45 45 45 37 37 55 48 58 53 61 60 52 45 39 40 38 45 42 48 34 46 41 37 28 25 25 40 34 25 26 28 34 27 39 40 30 45 47 43 43 40 42 31 33 46 35 51 32 35 29 43 17 34 32 27 23 21 28 29 21 20 24 36 30 28 43 39 44 39 41 47 34 37 44 35 40 55 53 53 45 34 37 37 42 48 37 33 52 56 47 59 60 69 80 82 73 81 70 65 60 47 42 53 47 51 42 55 37 33 27 23 27 37 18 22 35 34 26 27 35 24 25 31 30 30 33 27 32 28 29 28 29 41 18 36 30 36 44 41 55 62 67 91 99 84 69 61 67 56 40 53 63 61 55 50 49 47 58 39 28 28 18 29 24 33 29 36 38 39 48 41 54 49 45 62 46 35 42 43 49 41 54 53 48 45 38 42 23 26 22 30 22 37 27 28 26 36 36 38 45 43 40 32 40 38 29 35 22 30 26 26 32 31 22 30 23 32 35 28 36 34 38 32 29 36 27 19 27 24 36 27 30 34 33 44 44 39 44 46 43 54 32 54 35 41 31 40 40 45 45 42 40 28 36 30 48 34 32 53 45 43 30 39 23 39 29 41 43 56 35 27 27 28 21 27 18 28 18 22 20 26 20 22 23 15 23 20 19 23 30 35 38 42 47 39 49 54 53 58 48 40 41 25 27 18 25 22 22 19 20 32 30 34 39 33 33 34 32 32 35 33 33 41 59 39 41 39 33 40 37 33 27 27 25 24 29 27 35 39 31 41 35 24 35 42 39 29 36 23 23 31 38 42 30 29 28 31 34 32 13 23 25 26 17 27 28 27 27 27 20 31 25 28 24 29 29 34 20 25 29 45 37 41 43 27 41 53 36 33 28 28 33 33 37 37 41 36 35 42 50 48 47 56 53 49 51 55 46 67 62 59 57 70 59 53 36 31 23 33 26 27 22 41 34 47 25 24 37 25 20 23 37 34 35 23 35 27 32 21 39 30 30 39 37 40 33 40 40 38 60 48 38 36 38 32 47 47 43 46 51 50 44 63 64 58 95 89 112 107 113 94 118 115 153 146 178 184 156 185 170 161 128 143 126 161 168 188 210 245 317 330 396 456 540 666 748 837 900 831 724 632 444 364 262 212 180 150 136 123 97 100 75 82 79 65 88 58 65 49 44 55 69 52 62 38 44 60 61 46 59 62 70 70 61 76 55 58 45 58 46 48 61 64 52 73 76 90 82 96 110 109 131 145 116 101 63 60 56 46 34 37 32 33 45 39 39 36 36 47 64 31 53 38 33 36 40 39 37 47 57 49 37 35 35 32 25 34 37 38 35 32 38 25 40 52 48 53 58 53 64 51 49 48 47 53 45 39 34 47 45 31 22 37 42 26 30 41 37 44 33 29 37 35 39 45 42 52 34 36 21 37 26 30 30 32 33 29 25 31 42 46 35 36 43 52 53 43 51 39 43 47 43 31 48 44 49 36 35 37 42 23 14 25 22 27 29 16 32 30 28 27 31 27 38 27 23 19 37 29 28 26 18 36 37 24 24 27 38 31 34 28 31 32 46 41 50 39 52 51 60 66 46 71 67 54 36 41 33 39 54 50 58 49 25 25 34 29 39 46 34 47 39 37 36 33 47 42 54 34 45 31 40 28 26 26 28 29 22 31 31 30 23 39 48 44 39 39 40 41 45 44 24 38 33 28 37 32 19 42 32 28 29 36 24 35 30 31 35 36 37 25 34 27 29 31 40 39 45 57 33 46 33 39 61 47 54 50 50 43 34 30 39 40 29 37 42 30 31 34 39 26 42 32 28 26 38 43 30 36 31 21 20 23 20 35 28 34 28 39 39 42 37 41 33 43 40 47 47 51 57 63 58 60 49 44 39 48 39 47 45 35 55 53 46 42 82 62 78 65 81 86 74 67 62 73 86 89 78 78 85 71 75 52 57 48 48 46 44 36 56 43 41 45 35 37 31 40 39 39 30 27 40 36 47 46 56 48 58 65 69 71 95 106 109 127 115 115 138 113 97 73 76 71 64 88 62 66 70 64 64 60 63 73 94 74 77 81 70 54 55 55 70 52 63 55 57 52 35 29 21 24 30 37 41 39 33 32 37 44 45 53 61 50 49 72 62 63 50 63 72 75 60 64 63 49 39 37 45 35 32 43 30 47 38 48 41 68 57 62 49 67 56 46 50 41 37 42 39 48 51 33 50 45 54 49 43 44 46 46 56 50 52 68 72 96 125 126 131 105 121 66 75 57 54 55 54 49 63 53 36 45 31 29 47 32 25 43 44 28 32 30 33 28 41 32 29 29 32 29 34 39 30 28 21 31 34 37 43 52 58 56 55 70 71 62 76 54 81 78 75 75 97 105 88 100 90 68 66 69 59 95 90 88 78 66 62 49 48 41 52 49 55 51 75 57 93 101 102 119 123 108 109 86 62 64 46 49 58 52 44 47 46 43 49 43 38 37 46 42 45 42 24 28 41 32 28 26 27 29 27 26 23 22 27 28 39 32 19 23 31 37 32 37 32 36 48 40 33 31 32 40 34 39 33 28 36 32 30 32 35 28 30 33 40 35 29 45 35 38 39 45 46 39 53 49 62 55 58 63 42 53 61 56 69 52 42 50 48 22 25 29 28 31 23 35 33 23 32 34 34 23 29 50 42 49 50 41 40 40 59 49 57 55 45 51 53 58 43 57 50 55 46 47 57 54 53 46 72 77 68 61 85 106 92 110 128 134 156 179 118 99 90 69 57 53 43 35 29 32 49 40 44 40 48 63 45 53 53 66 49 62 68 75 75 88 85 78 55 53 41 50 55 37 33 33 32 42 39 32 41 40 32 28 45 50 39 40 46 55 53 62 68 71 62 70 79 75 57 55 52 53 56 79 54 62 94 80 76 81 93 99 110 92 88 72 56 61 45 44 44 38 36 47 45 42 37 45 42 50 45 51 46 42 36 41 54 51 47 60 39 36 51 44 46 32 35 46 47 52 50 60 51 46 75 68 53 74 73 81 58 61 42 64 62 47 64 55 50 57 51 71 74 57 90 78 96 86 90 77 92 113 85 127 139 135 154 116 152 174 192 173 215 232 258 292 381 371 457 501 603 700 806 919 979 1046 985 932 805 673 535 444 364 310 234 187 195 184 124 126 95 125 101 100 85 97 77 86 98 86 81 61 82 104 93 72 61 73 68 77 80 65 74 65 53 53 73 59 64 69 65 68 73 68 75 81 79 94 97 73 83 89 93 96 94 115 95 134 142 107 92 105 73 75 65 86 58 64 68 51 52 56 39 45 52 51 53 45 47 43 41 40 37 30 29 25 37 27 36 34 44 49 44 42 45 56 49 50 63 49 61 66 64 69 73 68 79 74 75 97 98 111 108 112 117 103 105 68 87 97 90 90 86 78 56 41 55 47 37 51 46 38 49 52 60 65 48 78 68 49 47 67 43 41 44 42 43</counts>
			</dataPoints>
			<nonAmbientPoints type="Temperature" unit="K">
				<measurementTimes unit="seconds" deltaTime="1">0 1 3 4 5 6 7 8 9 10 11 12 13 14 15 16 17 18 19 20 21 22 23 24 25 26 27 28 29 30 31 32 33 34 35 36 37 38 39 41 42 43 44 45 46 47 48 49 50 51 52 53 54 55 56 57 58 59 60 61 62 63 64 65 66 67 68 69 70 71 72 73 74 75 76 77 78 79 80 81 82 83 84 85 86 87 88 89 90 91 92 93 94 95 96 97 98 99 100 101 102 103 104 105 106 107 108 109 110 111 112 113 114 115 116 117 119 120 121 123 125 126 127 128 129 130 131 132 133 134 135 136 137 138 139 140 141 142 143 144 145 146 147 148 149 150 151 152 153 154 155 156 157 158 159 160 161 162 163 164 165 166 167 168 169 170 171 172 173 174 175 176 177 178 179 180 181 182 183 184 185 186 187 188 189 190 191 192 193 194 195 196 197 198 199 200 201 202 204 205 206 207 208 209 210 211 212 213 214 215 216 217 218 219 220 221 222 223 224 225 226 227 228 229 230 231 232 233 234 235 236 237 238 239 240 241 242 243 244 245 246 247 248 249 250 251 252 253 254 255 256 257 258 259 260 261 262 263 264 265 266 267 268 269 270 271 272 273 274 275 276 277 278 279 280 282 283 284 285 286 287 288 289 290 291 292 293 294 295 296 297 298 299 300 301 302 303 304 305 306 307 308 309 310 311 312 313 314 315 316 317 318 319 320 321 322 323 324 325 326 327 328 329 330 331 332 333 334 335 336 337 338 339 340 341 342 343 344 345 346 347 348 349 350 351 352 353 354 355 356 357 358 360 361 362 363 364 365 366 367 368 369 370 371 372 373 374 375 376 377 378 379 380 381 382 383 384 385 386 387 388 389 390 391 392 393 394 395 396 397 398 399 400 401 402 403 404 405 406 407 408 409 410 411 412 413 414 415 416 417 418 419 420 421 422 423 424 425 426 427 428 429 430 431 432 433 434 435 436 437 439 440 441 442 443 444 445 446 447 448 449 450 451 452 453 454 455 456 457 458 459 460 461 462 463 464 465 466 467 468 469 470 471 472 473 474 475 476 477 478 479 480 481 482 483 484 485 486 487 488 489 490 491 492 493 494 495 496 497 498 499 500 501 502 503 504 505 506 507 508 509 510 511 513 514 515 516 517 518 519 520 521 522 523 524 525 526 527 528 529 530 531 532 533 534 535 536 537 538 539 540 541 542 543 544 545 546 547 548 549 550 551 552 553 554 555 556 557 558 559 560 561 562 563 564 565 566 567 568 569 570 571 572 573 574 575 576 577 578 579 580 581 582 583 584 586 587 588 590 591 592 593 594 595 596 597 598 599 600 601 602 603 604 605 606 607 608 609 610 611 612 613 614 615 616 617 618 619 620 621 622 623 624 625 626 627 628 629 630 631 632 633 634 635 636 637 638 639 640 641 642 643 644 645 646 647 648 649 650 651 652 653 654 655 656 657 658 659 660 661 662 663 664 665 666 667 668 669 670 671 672 673 674 675 676 677 678 679 681 682 683 684 685 686 687 688 689 690 691 692 693 694 695 696 697 698 699 700 701 702 703 704 705 706 707 708 709 710 711 712 713 714 715 716 717 718 719 720 721 722 723 724 725 726 727 728 729 730 731 732 733 734 735 736 737 738 739 740 741 742 743 744 745 746 747 748 749 750 751 752 754 755 756 757 758 759 760 761 762 763 764 765 766 767 768 769 770 771 772 773 774 775 776 777 778 779 780 781 782 783 784 785 786 787 788 789 790 791 792 793 794 795 796 797 798 799 800 801 802 803 804 805 806 807 808 809 810 811 812 813 814 815 816 817 818 819 820 821 822 823 824 825 826 828 829 830 831 832 833 834 835 836 837 838 839 840 841 842 843 844 845 846 847 848 849 850 851 852 853 854 855 856 857 858 859 860 861 862 863 864 865 866 867 868 869 870 871 872 873 874 875 876 877 878 879 880 881 882 883 884 885 886 887 888 889 890 891 892 893 894 895 896 897 898 899 900 901 902 903 904 905 906 907 908 909 910 911 912 913 915 916 917 918 919 920 921 922 923 924 925 926 927 928 929 930 931 932 933 934 935 936 937 938 939 940 941 942 943 944 945 946 947 948 949 950 951 952 953 954 955 956 957 958 959 960 961 962 963 964 965 966 967 968 969 970 971 972 973 974 975 976 977 978 979 980 981 982 983 984 985 986 987 988 989 990 991 992 993 994 995 996 997 999 1000 1001 1002 1003 1004 1005 1006 1007 1008 1009 1010 1011 1012 1013 1014 1015 1016 1017 1018 1019 1020 1021 1022 1023 1024 1025 1026 1027 1028 1029 1030 1031 1032 1033 1034 1035 1036 1037 1038 1039 1040 1041 1042 1043 1044 1045 1046 1047 1048 1049 1050 1051 1052 1053 1054 1055 1056 1057 1058 1059 1060 1061 1062 1063 1064 1065 1066 1067 1068 1069 1070 1071 1072 1073 1075 1076 1077 1078 1079 1080 1081 1082 1083 1084 1085 1086 1087 1088 1089 1090 1091 1092 1093 1094 1095 1096 1097 1098 1099 1100 1101 1102 1103 1104 1105 1106 1107 1108 1109 1110 1111 1112 1113 1114 1115 1116 1117 1118 1119 1120 1121 1122 1123 1124 1125 1126 1127 1128 1129 1130 1131 1132 1133 1134 1135 1136 1137 1138 1139 1140 1141 1142 1143 1144 1145 1146 1147 1148 1149 1151 1152 1153 1154 1155 1156 1157 1158 1159 1160 1161 1162 1163 1164 1165 1166 1167 1168 1169 1170 1171 1172 1173 1174 1175 1176 1177 1178 1179 1180 1181 1182 1183 1184 1185 1186 1187 1188 1189 1190 1191 1192 1193 1194 1195 1196 1197 1198 1199 1200 1201 1202 1203 1204 1205 1206 1207 1208 1209 1210 1211 1212 1213 1214 1215 1216 1217 1218 1219 1220 1221 1222 1223 1224 1225 1227 1228 1229 1230 1231 1232 1233 1234 1235 1236 1237 1238 1239 1240 1241 1242 1243 1244 1245 1246 1247 1248 1249 1250 1251 1252 1253 1254 1255 1256 1257 1258 1259 1260 1261 1262 1263 1264 1265 1266 1267 1268 1269 1270 1271 1272 1273 1274 1275 1276 1277 1278 1279 1280 1281 1282 1283 1284 1285 1286 1287 1288 1289 1290 1291 1292 1293 1294 1295 1296 1297 1298 1299 1300 1302 1303 1304 1306 1307 1308 1309 1310 1311 1312 1313 1314 1315 1316 1317 1318 1319 1320 1321 1322 1323 1324 1325 1326 1327 1328 1329 1330 1331 1332 1333 1334 1335 1336 1337 1338 1339 1340 1341 1342 1343 1344 1345 1346 1347 1348 1349 1350 1351 1352 1353 1354 1355 1356 1357 1358 1359 1360 1361 1362 1363 1364 1365 1366 1367 1368 1369 1370 1371 1373 1374 1375 1376 1377 1378 1379 1380 1381 1382 1383 1384 1385 1386 1387 1388 1389 1390 1391 1392 1393 1394 1395 1396 1397 1398 1399 1400 1401 1402 1403 1404 1405 1406 1407 1408 1409 1410 1411 1412 1413 1414 1415 1416 1417 1418 1419 1420 1421 1422 1423 1424 1425 1426 1427 1428 1429 1430 1431 1432 1433 1434 1435 1436 1437 1438 1439 1440 1441 1442 1443 1444 1446 1447 1448 1449 1450 1451 1452 1454 1456 1457 1458 1459 1460 1461 1462 1463 1464 1465 1466 1467 1468 1469 1470 1471 1472 1473 1474 1475 1476 1477 1478 1479 1480 1481 1482 1483 1484 1485 1486 1487 1488 1489 1490 1491 1492 1493 1494 1495 1496 1497 1498 1499 1500 1501 1502 1503 1504 1505 1506 1507 1508 1509 1510 1511 1512 1513 1514 1515 1516 1517 1518 1519 1520 1521 1522 1523 1524 1525 1526 1527 1528 1530 1531 1532 1533 1534 1535 1536 1537 1538 1539 1540 1541 1542 1543 1544 1545 1546 1547 1548 1549 1550 1551 1552 1553 1554 1555 1556 1557 1558 1559 1560 1561 1562 1563 1564 1565 1566 1567 1568 1569 1570 1571 1572 1573 1574 1575 1576 1577 1578 1579 1580 1581 1582 1583 1584 1585 1586 1587 1588 1589 1590 1591 1592 1593 1594 1595 1596 1597 1598 1599 1600 1601 1602 1604 1605 1606 1607 1608 1609 1610 1611 1612 1613 1614 1615 1616 1617 1618 1619 1620 1621 1622 1623 1624 1625 1626 1627 1628 1629 1630 1631 1632 1633 1634 1635 1636 1637 1638 1639 1640 1641 1642 1643 1644 1645 1646 1647 1648 1649 1650 1651 1652 1653 1654 1655 1656 1657 1658 1659 1660 1661 1662 1663 1664 1665 1666 1667 1668 1669 1670 1671 1672 1673 1674 1675 1676 1677 1678 1679 1680 1681 1682 1683 1684 1686 1687 1688 1689 1690 1691 1692 1693 1694 1695 1696 1697 1698 1699 1700 1701 1702 1703 1704 1705 1706 1707 1708 1709 1710 1711 1712 1713 1714 1715 1716 1717 1718 1719 1720 1721 1722 1723 1724 1725 1726 1727 1728 1729 1730 1731 1732 1733 1734 1735 1736 1737 1738 1739 1740 1741 1742 1743 1744 1745 1746 1747 1748 1749 1750 1751 1752 1753 1754 1755 1756 1757 1758 1760 1761 1762 1764 1765 1766 1767 1768 1769 1770 1771 1772 1773 1774 1775 1776 1777 1778 1779 1780 1781 1782 1783 1784 1785 1786 1787 1788 1789 1790 1791 1792 1793 1794 1795 1796 1797 1798 1799 1800 1801 1802 1803 1804 1805 1806 1807 1808 1809 1810 1811 1812 1813 1814 1815 1816 1817 1818 1819 1820 1821 1822 1823 1824 1825 1826 1827 1828 1829 1830 1831 1832 1833 1834 1835 1836 1837 1838 1839 1840 1841 1842 1844 1845 1846 1847 1848 1849 1850 1851 1852 1853 1854 1855 1856 1857 1858 1859 1860 1861 1862 1863 1864 1865 1866 1867 1868 1869 1870 1871 1872 1873 1874 1875 1876 1877 1878 1879 1880 1881 1882 1883 1884 1885 1886 1887 1888 1889 1890 1891 1892 1893 1894 1895 1896 1897 1898 1899 1900 1901 1902 1903 1904 1905 1906 1907 1908 1909 1910 1911 1912 1913 1914 1915 1916 1917 1918 1920 1921 1922 1923 1924 1925 1926 1928 1929 1930 1931 1932 1933 1934 1935 1936 1937 1938 1939 1940 1941 1942 1943 1944 1945 1946 1947 1948 1949 1950 1951 1952 1953 1954 1955 1956 1957 1958 1959 1960 1961 1962 1963 1964 1965 1966 1967 1968 1969 1970 1971 1972 1973 1974 1975 1976 1977 1978 1979 1980 1981 1982 1983 1984 1985 1986 1987 1988 1989 1990 1991 1992 1993 1994 1995 1996 1997 1998 1999 2000 2001 2002 2003 2005 2006 2007 2008 2009 2011 2012 2013 2014 2015 2016 2017 2018 2019 2020 2021 2022 2023 2024 2025 2026 2027 2028 2029 2030 2031 2032 2033 2034 2035 2036 2037 2038 2039 2040 2041 2042 2043 2044 2045 2046 2047 2048 2049 2050 2051 2052 2053 2054 2055 2056 2057 2058 2059 2060 2061 2062 2063 2064 2065 2066 2067 2068 2069 2070 2071 2072 2073 2074 2075 2076 2077 2078 2079 2080 2081 2082 2083 2084 2085 2086 2087 2088 2089 2091 2092 2093 2094 2095 2096 2097 2099 2100 2101 2102 2103 2104 2105 2106 2107 2108 2109 2110 2111 2112 2113 2114 2115 2116 2117 2118 2119 2120 2121 2122 2123 2124 2125 2126 2127 2128 2129 2130 2131 2132 2133 2134 2135 2136 2137 2138 2139 2140 2141 2142 2143 2144 2145 2146 2147 2148 2149 2150 2151 2152 2153 2154 2155 2156 2157 2158 2159 2160 2161 2162 2163 2165 2166 2167 2168 2169 2171 2172 2173 2174 2175 2176 2177 2178 2179 2180 2181 2182 2183 2184 2185 2186 2187 2188 2189 2190 2191 2192 2193 2194 2195 2196 2197 2198 2199 2200 2201 2202 2203 2204 2205 2206 2207 2208 2209 2210 2211 2212 2213 2214 2215 2216 2217 2218 2219 2220 2221 2222 2223 2224 2225 2226 2227 2228 2229 2230 2231 2232 2233 2234 2235 2236 2237 2238 2239 2240 2241 2242 2243 2244 2246 2247 2248 2249 2250 2251 2252 2253 2254 2255 2256 2257 2258 2259 2260 2261 2262 2263 2264 2265 2266 2267 2268 2269 2270 2271 2272 2273 2274 2275 2276 2277 2278 2279 2280 2281 2282 2283 2284 2285 2286 2287 2288 2289 2290 2291 2292 2293 2294 2295 2296 2297 2298 2299 2300 2301 2302 2303 2304 2305 2306 2307 2308 2309 2310 2311 2312 2313 2314 2315 2316 2317 2318 2319 2320 2321 2322 2323 2324 2325 2326 2327 2328 2329 2330 2331 2332 2333 2334 2335 2337 2338 2339 2340 2341 2342 2343 2344 2345 2346 2347 2348 2349 2350 2351 2352 2353 2354 2355 2356 2357 2358 2359 2360 2361 2362 2363 2364 2365 2366 2367 2368 2369 2370 2371 2372 2373 2374 2375 2376 2377 2378 2379 2380 2381 2382 2383 2384 2385 2386 2387 2388 2389 2390 2391 2392 2393 2394 2395 2396 2397 2398 2399 2400 2401 2402 2403 2404 2405 2406 2407 2408 2409 2410 2411 2412 2413 2414 2415 2416 2417 2418 2419 2420 2422 2424 2425 2426 2427 2428 2429 2430 2431 2432 2433 2434 2435 2436 2437 2438 2439 2440 2441 2442 2443 2444 2445 2446 2447 2448 2449 2450 2451 2452 2453 2454 2455 2456 2457 2458 2459 2460 2461 2462 2463 2464 2465 2466 2467 2468 2469 2470 2471 2472 2473 2474 2475 2476 2477 2478 2479 2480 2481 2482 2483 2484 2485 2486 2487 2488 2489 2490 2491 2492 2493 2494 2495 2496 2497 2499 2500 2501 2502 2503 2504 2505 2506 2507 2508 2509 2510 2511 2512 2513 2514 2515 2516 2517 2518 2519 2520 2521 2522 2523 2524 2525 2526 2527 2528 2529 2530 2531 2532 2533 2534 2535 2536 2537 2538 2539 2540 2541 2542 2543 2544 2545 2546 2547 2548 2549 2550 2551 2552 2553 2554 2555 2556 2557 2558 2559 2560 2561 2562 2563 2564 2565 2566 2567 2568 2569 2571 2572 2573 2574 2576 2577 2578 2579 2580 2581 2582 2583 2584 2585 2586 2587 2588 2589 2590 2591 2592 2593 2594 2595 2596 2597 2598 2599 2600 2601 2602 2603 2604 2605 2606 2607 2608 2609 2610 2611 2612 2613 2614 2615 2616 2617 2618 2619 2620 2621 2622 2623 2624 2625 2626 2627 2628 2629 2630 2631 2632 2633 2634 2635 2636 2637 2638 2639 2640 2641 2642 2643 2644</measurementTimes>
				<nonAmbientValues>298 298 298 298 298 298 298 298 298 298 298 298 298 298 298 298 298 298 298 298 298 298 298 298 298 298 298 298 298 298 298 298 298 298 298 298 298 298 298 298 298 298 298 298 298 298 298 298 298 298 298 298 298 298 298 298 298 298 298 298 298 298 298 298 298 298 298 298 298 298 298 298 298 298 298 298 298 298 298 298 298 298 298 298 298 298 298 298 298 298 298 298 298 298 298 298 298 298 298 298 298 298 298 298 298 298 298 298 298 298 298 298 298 298 298 298 298 298 298 298 298 298 298 298 298 298 298 298 298 298 298 298 298 298 298 298 298 298 298 298 298 298 298 298 298 298 298 298 298 298 298 298 298 298 298 298 298 298 298 298 298 298 298 298 298 298 298 298 298 298 298 298 298 298 298 298 298 298 298 298 298 298 298 298 298 298 298 298 298 298 298 298 298 298 298 298 298 298 298 298 298 298 298 298 298 298 298 298 298 298 298 298 298 298 298 298 298 298 298 298 298 298 298 298 298 298 298 298 298 298 298 298 298 298 298 298 298 298 298 298 298 298 298 298 298 298 298 298 298 298 298 298 298 298 298 298 298 298 298 298 298 298 298 298 298 298 298 298 298 298 298 298 298 298 298 298 298 298 298 298 298 298 298 298 298 298 298 298 298 298 298 298 298 298 298 298 298 298 298 298 298 298 298 298 298 298 298 298 298 298 298 298 298 298 298 298 298 298 298 298 298 298 298 298 298 298 298 298 298 298 298 298 298 298 298 298 298 298 298 298 298 298 298 298 298 298 298 298 298 298 298 298 298 298 298 298 298 298 298 298 298 298 298 298 298 298 298 298 298 298 298 298 298 298 298 298 298 298 298 298 298 298 298 298 298 298 298 298 298 298 298 298 298 298 298 298 298 298 298 298 298 298 298 298 298 298 298 298 298 298 298 298 298 298 298 298 298 298 298 298 298 298 298 298 298 298 298 298 298 298 298 298 298 298 298 298 298 298 298 298 298 298 298 298 298 298 298 298 298 298 298 298 298 298 298 298 298 298 298 298 298 298 298 298 298 298 298 298 298 298 298 298 298 298 298 298 298 298 298 298 298 298 298 298 298 298 298 298 298 298 298 298 298 298 298 298 298 298 298 298 298 298 298 298 298 298 298 298 298 298 298 298 298 298 298 298 298 298 298 298 298 298 298 298 298 298 298 298 298 298 298 298 298 298 298 298 298 298 298 298 298 298 298 298 298 298 298 298 298 298 298 298 298 298 298 298 298 298 298 298 298 298 298 298 298 298 298 298 298 298 298 298 298 298 298 298 298 298 298 298 298 298 298 298 298 298 298 298 298 298 298 298 298 298 298 298 298 298 298 298 298 298 298 298 298 298 298 298 298 298 298 298 298 298 298 298 298 298 298 298 298 298 298 298 298 298 298 298 298 298 298 298 298 298 298 298 298 298 298 298 298 298 298 298 298 298 298 298 298 298 298 298 298 298 298 298 298 298 298 298 298 298 298 298 298 298 298 298 298 298 298 298 298 298 298 298 298 298 298 298 298 298 298 298 298 298 298 298 298 298 298 298 298 298 298 298 298 298 298 298 298 298 298 298 298 298 298 298 298 298 298 298 298 298 298 298 298 298 298 298 298 298 298 298 298 298 298 298 298 298 298 298 298 298 298 298 298 298 298 298 298 298 298 298 298 298 298 298 298 298 298 298 298 298 298 298 298 298 298 298 298 298 298 298 298 298 298 298 298 298 298 298 298 298 298 298 298 298 298 298 298 298 298 298 298 298 298 298 298 298 298 298 298 298 298 298 298 298 298 298 298 298 298 298 298 298 298 298 298 298 298 298 298 298 298 298 298 298 298 298 298 298 298 298 298 298 298 298 298 298 298 298 298 298 298 298 298 298 298 298 298 298 298 298 298 298 298 298 298 298 298 298 298 298 298 298 298 298 298 298 298 298 298 298 298 298 298 298 298 298 298 298 298 298 298 298 298 298 298 298 298 298 298 298 298 298 298 298 298 298 298 298 298 298 298 298 298 298 298 298 298 298 298 298 298 298 298 298 298 298 298 298 298 298 298 298 298 298 298 298 298 298 298 298 298 298 298 298 298 298 298 298 298 298 298 298 298 298 298 298 298 298 298 298 298 298 298 298 298 298 298 298 298 298 298 298 298 298 298 298 298 298 298 298 298 298 298 298 298 298 298 298 298 298 298 298 298 298 298 298 298 298 298 298 298 298 298 298 298 298 298 298 298 298 298 298 298 298 298 298 298 298 298 298 298 298 298 298 298 298 298 298 298 298 298 298 298 298 298 298 298 298 298 298 298 298 298 298 298 298 298 298 298 298 298 298 298 298 298 298 298 298 298 298 298 298 298 298 298 298 298 298 298 298 298 298 298 298 298 298 298 298 298 298 298 298 298 298 298 298 298 298 298 298 298 298 298 298 298 298 298 298 298 298 298 298 298 298 298 298 298 298 298 298 298 298 298 298 298 298 298 298 298 298 298 298 298 298 298 298 298 298 298 298 298 298 298 298 298 298 298 298 298 298 298 298 298 298 298 298 298 298 298 298 298 298 298 298 298 298 298 298 298 298 298 298 298 298 298 298 298 298 298 298 298 298 298 298 298 298 298 298 298 298 298 298 298 298 298 298 298 298 298 298 298 298 298 298 298 298 298 298 298 298 298 298 298 298 298 298 298 298 298 298 298 298 298 298 298 298 298 298 298 298 298 298 298 298 298 298 298 298 298 298 298 298 298 298 298 298 298 298 298 298 298 298 298 298 298 298 298 298 298 298 298 298 298 298 298 298 298 298 298 298 298 298 298 298 298 298 298 298 298 298 298 298 298 298 298 298 298 298 298 298 298 298 298 298 298 298 298 298 298 298 298 298 298 298 298 298 298 298 298 298 298 298 298 298 298 298 298 298 298 298 298 298 298 298 298 298 298 298 298 298 298 298 298 298 298 298 298 298 298 298 298 298 298 298 298 298 298 298 298 298 298 298 298 298 298 298 298 298 298 298 298 298 298 298 298 298 298 298 298 298 298 298 298 298 298 298 298 298 298 298 298 298 298 298 298 298 298 298 298 298 298 298 298 298 298 298 298 298 298 298 298 298 298 298 298 298 298 298 298 298 298 298 298 298 298 298 298 298 298 298 298 298 298 298 298 298 298 298 298 298 298 298 298 298 298 298 298 298 298 298 298 298 298 298 298 298 298 298 298 298 298 298 298 298 298 298 298 298 298 298 298 298 298 298 298 298 298 298 298 298 298 298 298 298 298 298 298 298 298 298 298 298 298 298 298 298 298 298 298 298 298 298 298 298 298 298 298 298 298 298 298 298 298 298 298 298 298 298 298 298 298 298 298 298 298 298 298 298 298 298 298 298 298 298 298 298 298 298 298 298 298 298 298 298 298 298 298 298 298 298 298 298 298 298 298 298 298 298 298 298 298 298 298 298 298 298 298 298 298 298 298 298 298 298 298 298 298 298 298 298 298 298 298 298 298 298 298 298 298 298 298 298 298 298 298 298 298 298 298 298 298 298 298 298 298 298 298 298 298 298 298 298 298 298 298 298 298 298 298 298 298 298 298 298 298 298 298 298 298 298 298 298 298 298 298 298 298 298 298 298 298 298 298 298 298 298 298 298 298 298 298 298 298 298 298 298 298 298 298 298 298 298 298 298 298 298 298 298 298 298 298 298 298 298 298 298 298 298 298 298 298 298 298 298 298 298 298 298 298 298 298 298 298 298 298 298 298 298 298 298 298 298 298 298 298 298 298 298 298 298 298 298 298 298 298 298 298 298 298 298 298 298 298 298 298 298 298 298 298 298 298 298 298 298 298 298 298 298 298 298 298 298 298 298 298 298 298 298 298 298 298 298 298 298 298 298 298 298 298 298 298 298 298 298 298 298 298 298 298 298 298 298 298 298 298 298 298 298 298 298 298 298 298 298 298 298 298 298 298 298 298 298 298 298 298 298 298 298 298 298 298 298 298 298 298 298 298 298 298 298 298 298 298 298 298 298 298 298 298 298 298 298 298 298 298 298 298 298 298 298 298 298 298 298 298 298 298 298 298 298 298 298 298 298 298 298 298 298 298 298 298 298 298 298 298 298 298 298 298 298 298 298 298 298 298 298 298 298 298 298 298 298 298 298 298 298 298 298 298 298 298 298 298 298 298 298 298 298 298 298 298 298 298 298 298 298 298 298 298 298 298 298 298 298 298 298 298 298 298 298 298 298 298 298 298 298 298 298 298 298 298 298 298 298 298 298 298 298 298 298 298 298 298 298 298 298 298 298 298 298 298 298 298 298 298 298 298 298 298 298 298 298 298 298 298 298 298 298 298 298 298 298 298 298 298 298 298 298 298 298 298 298 298 298 298 298 298 298 298 298 298 298 298 298 298 298 298 298 298 298 298 298 298 298 298 298 298 298 298 298 298 298 298 298 298 298 298 298 298 298 298 298 298 298 298 298 298 298 298 298 298 298 298 298 298 298 298 298 298 298 298 298 298 298 298 298 298 298 298 298 298 298 298 298 298 298 298 298 298 298 298 298 298 298 298 298 298 298 298 298 298 298 298 298 298 298 298 298 298 298 298 298 298 298 298 298 298 298 298 298 298 298 298 298 298 298 298 298 298 298 298 298 298 298 298 298 298 298 298 298 298 298 298 298 298 298 298 298 298 298 298 298 298 298 298 298 298 298 298 298 298 298 298 298 298 298 298 298 298 298 298 298 298 298 298 298 298 298 298 298 298 298 298 298 298 298 298 298 298 298 298 298 298 298 298 298 298 298 298 298 298 298 298 298 298 298 298 298 298 298 298 298 298 298 298 298 298 298 298 298 298 298 298 298 298 298 298 298 298 298 298 298 298 298 298 298 298 298 298 298 298 298 298 298 298 298 298 298 298 298 298 298 298 298 298 298 298 298 298 298 298 298 298 298 298 298 298 298 298 298 298 298 298 298 298 298 298 298 298 298 298 298 298 298 298 298 298 298 298 298 298 298 298 298 298 298 298 298 298 298 298 298 298 298 298 298 298 298 298 298 298 298 298 298 298 298 298 298 298 298 298 298 298 298 298 298 298 298 298 298 298 298 298 298 298 298 298 298 298 298 298 298 298 298 298 298 298 298 298 298 298 298 298 298 298 298 298 298 298 298 298 298 298 298 298 299 299 298 298 298 298 299 299 299 299 299 299 299 299 299 298 299 299 299 299 299 299 299 299 299 299 299 298 298 298 299 299 299 299 299 299 299 299 299 299 299 299 299 299 299 299 299 299 299 299 299 299 299 299 299 299 299 299 299 299 299 299 299 299 299 299 299 299 299 299 299 299 299 299 299 299 299 299 299 299 299 299 299 299 299 299 299 299 299 299 299 299 299 299 299 299 299 299 299 299 299 299 299 299 299 299 299 299 299 298 298 298 299 299 299 299 299 299 299 299 299 298 298 298 298 298 298 298 299 298 298 298 298 299 298 298 298 298 298 298 298 298 298 298 298 298 298 298 298 298 298 298 298 298 298 298 298 298 298 298 298 298 298 298 298 298 298 298 298 298 298 298 298 298 298 298 298 298 298 298 298 298 298 298 298 298 298 298 298 298 298 298 298 298 298 298 298 298 298 298 298 298 298 298 298 298 298 298 298 298 298 298 298 298 298 298 298 298 298 298 298 298 298 298 298 298 298 298 298 298 298 298 298 298 298 298 298 298 298 298 298 298 298 298 298 298 298 298 298 298 298 298 298 298 298 298 298 298 298 298 298 298 298 298 298 298 298 298 298 298 298 298 298 298 298 298 298 298 298 298 298 298 298 298 298 298 298 298 298 298 298 298 298 298 298 298 298 298 298 298 298 298 298 298 298 298 298 298 298</nonAmbientValues>
			</nonAmbientPoints>
		</scan>
	</xrdMeasurement>
</xrdMeasurements>
