##TITLE=Spectrum
##JCAMP-DX=5.00 $$ chemotion-converter-app (1.1.0)
##DATA TYPE=THERMOGRAVIMETRIC ANALYSIS
##DATA CLASS=XYPOINTS
##ORIGIN=
##OWNER=
##XUNITS=DEGREES CELSIUS
##YUNITS=Weight %
##FIRSTX=29.83
##LASTX=29.68
##MINX=29.68
##MAXX=30.18
##MINY=99.97
##MAXY=99.98
##NPOINTS=1800
##FIRSTY=99.98
##XUNITS=DEGREES CELSIUS
##YUNITS=Weight %
##XYPOINTS=(XY..XY)
29.83, 99.98
29.83, 99.98
29.83, 99.98
29.83, 99.98
29.83, 99.98
29.83, 99.98
29.83, 99.98
29.83, 99.98
29.84, 99.98
29.84, 99.98
29.84, 99.98
29.84, 99.98
29.84, 99.98
29.84, 99.98
29.84, 99.98
29.84, 99.98
29.84, 99.98
29.85, 99.98
29.85, 99.98
29.85, 99.98
29.85, 99.98
29.85, 99.98
29.85, 99.98
29.85, 99.98
29.85, 99.98
29.85, 99.98
29.85, 99.98
29.86, 99.98
29.86, 99.98
29.86, 99.98
29.86, 99.98
29.86, 99.98
29.86, 99.98
29.86, 99.98
29.86, 99.98
29.86, 99.98
29.87, 99.98
29.87, 99.98
29.87, 99.98
29.87, 99.98
29.87, 99.98
29.87, 99.98
29.87, 99.98
29.87, 99.98
29.87, 99.98
29.87, 99.98
29.88, 99.98
29.88, 99.98
29.88, 99.98
29.88, 99.98
29.88, 99.98
29.88, 99.98
29.88, 99.98
29.88, 99.98
29.88, 99.98
29.88, 99.98
29.89, 99.98
29.89, 99.98
29.89, 99.98
29.89, 99.98
29.89, 99.98
29.89, 99.98
29.89, 99.98
29.89, 99.98
29.89, 99.98
29.89, 99.98
29.9, 99.98
29.9, 99.98
29.9, 99.98
29.9, 99.98
29.9, 99.98
29.9, 99.98
29.9, 99.98
29.9, 99.98
29.9, 99.98
29.9, 99.98
29.91, 99.98
29.91, 99.98
29.91, 99.98
29.91, 99.98
29.91, 99.98
29.91, 99.98
29.91, 99.98
29.91, 99.98
29.91, 99.98
29.91, 99.98
29.92, 99.98
29.92, 99.98
29.92, 99.98
29.92, 99.98
29.92, 99.98
29.92, 99.98
29.92, 99.98
29.92, 99.98
29.92, 99.98
29.92, 99.98
29.93, 99.98
29.93, 99.98
29.93, 99.98
29.93, 99.98
29.93, 99.98
29.93, 99.98
29.93, 99.98
29.93, 99.98
29.93, 99.98
29.93, 99.98
29.93, 99.98
29.94, 99.98
29.94, 99.98
29.94, 99.98
29.94, 99.98
29.94, 99.98
29.94, 99.98
29.94, 99.98
29.94, 99.98
29.94, 99.98
29.94, 99.98
29.94, 99.98
29.95, 99.98
29.95, 99.98
29.95, 99.98
29.95, 99.98
29.95, 99.98
29.95, 99.98
29.95, 99.98
29.95, 99.98
29.95, 99.98
29.95, 99.98
29.95, 99.98
29.96, 99.98
29.96, 99.98
29.96, 99.98
29.96, 99.98
29.96, 99.98
29.96, 99.98
29.96, 99.98
29.96, 99.98
29.96, 99.98
29.96, 99.98
29.96, 99.98
29.97, 99.98
29.97, 99.98
29.97, 99.98
29.97, 99.98
29.97, 99.98
29.97, 99.98
29.97, 99.98
29.97, 99.98
29.97, 99.98
29.97, 99.98
29.97, 99.98
29.98, 99.98
29.98, 99.98
29.98, 99.98
29.98, 99.98
29.98, 99.98
29.98, 99.98
29.98, 99.98
29.98, 99.98
29.98, 99.98
29.98, 99.98
29.98, 99.98
29.98, 99.98
29.99, 99.98
29.99, 99.98
29.99, 99.98
29.99, 99.98
29.99, 99.98
29.99, 99.98
29.99, 99.98
29.99, 99.98
29.99, 99.98
29.99, 99.98
29.99, 99.98
29.99, 99.98
30.0, 99.98
30.0, 99.98
30.0, 99.98
30.0, 99.98
30.0, 99.98
30.0, 99.98
30.0, 99.98
30.0, 99.98
30.0, 99.98
30.0, 99.98
30.0, 99.98
30.0, 99.98
30.01, 99.98
30.01, 99.98
30.01, 99.98
30.01, 99.98
30.01, 99.98
30.01, 99.98
30.01, 99.98
30.01, 99.98
30.01, 99.98
30.01, 99.98
30.01, 99.98
30.01, 99.98
30.02, 99.98
30.02, 99.98
30.02, 99.98
30.02, 99.98
30.02, 99.98
30.02, 99.98
30.02, 99.98
30.02, 99.98
30.02, 99.98
30.02, 99.98
30.02, 99.98
30.02, 99.98
30.02, 99.98
30.03, 99.98
30.03, 99.98
30.03, 99.98
30.03, 99.98
30.03, 99.98
30.03, 99.98
30.03, 99.98
30.03, 99.98
30.03, 99.98
30.03, 99.98
30.03, 99.98
30.03, 99.98
30.03, 99.98
30.04, 99.98
30.04, 99.98
30.04, 99.98
30.04, 99.98
30.04, 99.98
30.04, 99.98
30.04, 99.98
30.04, 99.98
30.04, 99.98
30.04, 99.98
30.04, 99.98
30.04, 99.98
30.04, 99.98
30.04, 99.98
30.05, 99.98
30.05, 99.98
30.05, 99.98
30.05, 99.98
30.05, 99.98
30.05, 99.98
30.05, 99.98
30.05, 99.98
30.05, 99.98
30.05, 99.98
30.05, 99.98
30.05, 99.98
30.05, 99.98
30.05, 99.98
30.06, 99.98
30.06, 99.98
30.06, 99.98
30.06, 99.98
30.06, 99.98
30.06, 99.98
30.06, 99.98
30.06, 99.98
30.06, 99.98
30.06, 99.98
30.06, 99.98
30.06, 99.98
30.06, 99.98
30.06, 99.98
30.07, 99.98
30.07, 99.98
30.07, 99.98
30.07, 99.98
30.07, 99.98
30.07, 99.98
30.07, 99.98
30.07, 99.98
30.07, 99.98
30.07, 99.98
30.07, 99.98
30.07, 99.98
30.07, 99.98
30.07, 99.98
30.07, 99.98
30.08, 99.98
30.08, 99.98
30.08, 99.98
30.08, 99.98
30.08, 99.98
30.08, 99.98
30.08, 99.98
30.08, 99.98
30.08, 99.98
30.08, 99.98
30.08, 99.98
30.08, 99.98
30.08, 99.98
30.08, 99.98
30.08, 99.98
30.08, 99.98
30.09, 99.98
30.09, 99.98
30.09, 99.98
30.09, 99.98
30.09, 99.98
30.09, 99.98
30.09, 99.98
30.09, 99.98
30.09, 99.98
30.09, 99.98
30.09, 99.98
30.09, 99.98
30.09, 99.98
30.09, 99.98
30.09, 99.98
30.09, 99.98
30.09, 99.98
30.1, 99.98
30.1, 99.98
30.1, 99.98
30.1, 99.98
30.1, 99.98
30.1, 99.98
30.1, 99.98
30.1, 99.98
30.1, 99.98
30.1, 99.98
30.1, 99.98
30.1, 99.98
30.1, 99.98
30.1, 99.98
30.1, 99.98
30.1, 99.98
30.1, 99.98
30.1, 99.98
30.11, 99.98
30.11, 99.98
30.11, 99.98
30.11, 99.98
30.11, 99.98
30.11, 99.98
30.11, 99.98
30.11, 99.98
30.11, 99.98
30.11, 99.98
30.11, 99.98
30.11, 99.98
30.11, 99.98
30.11, 99.98
30.11, 99.98
30.11, 99.98
30.11, 99.98
30.11, 99.98
30.11, 99.98
30.11, 99.98
30.12, 99.98
30.12, 99.98
30.12, 99.98
30.12, 99.98
30.12, 99.98
30.12, 99.98
30.12, 99.98
30.12, 99.98
30.12, 99.98
30.12, 99.98
30.12, 99.98
30.12, 99.98
30.12, 99.98
30.12, 99.98
30.12, 99.98
30.12, 99.98
30.12, 99.98
30.12, 99.98
30.12, 99.98
30.12, 99.98
30.13, 99.98
30.13, 99.98
30.13, 99.98
30.13, 99.98
30.13, 99.98
30.13, 99.98
30.13, 99.98
30.13, 99.98
30.13, 99.98
30.13, 99.98
30.13, 99.98
30.13, 99.98
30.13, 99.98
30.13, 99.98
30.13, 99.98
30.13, 99.98
30.13, 99.98
30.13, 99.98
30.13, 99.98
30.13, 99.98
30.13, 99.98
30.13, 99.98
30.13, 99.98
30.13, 99.98
30.14, 99.98
30.14, 99.98
30.14, 99.98
30.14, 99.98
30.14, 99.98
30.14, 99.98
30.14, 99.98
30.14, 99.98
30.14, 99.98
30.14, 99.98
30.14, 99.98
30.14, 99.98
30.14, 99.98
30.14, 99.98
30.14, 99.98
30.14, 99.98
30.14, 99.98
30.14, 99.98
30.14, 99.98
30.14, 99.98
30.14, 99.98
30.14, 99.98
30.14, 99.98
30.14, 99.98
30.14, 99.98
30.14, 99.98
30.15, 99.98
30.15, 99.98
30.15, 99.98
30.15, 99.98
30.15, 99.98
30.15, 99.98
30.15, 99.98
30.15, 99.98
30.15, 99.98
30.15, 99.98
30.15, 99.98
30.15, 99.98
30.15, 99.98
30.15, 99.98
30.15, 99.98
30.15, 99.98
30.15, 99.98
30.15, 99.98
30.15, 99.98
30.15, 99.98
30.15, 99.98
30.15, 99.98
30.15, 99.98
30.15, 99.98
30.15, 99.98
30.15, 99.98
30.15, 99.98
30.15, 99.98
30.15, 99.98
30.15, 99.98
30.16, 99.98
30.16, 99.98
30.16, 99.98
30.16, 99.98
30.16, 99.98
30.16, 99.98
30.16, 99.98
30.16, 99.98
30.16, 99.98
30.16, 99.98
30.16, 99.98
30.16, 99.98
30.16, 99.98
30.16, 99.98
30.16, 99.98
30.16, 99.98
30.16, 99.98
30.16, 99.98
30.16, 99.98
30.16, 99.98
30.16, 99.98
30.16, 99.98
30.16, 99.98
30.16, 99.98
30.16, 99.98
30.16, 99.98
30.16, 99.98
30.16, 99.98
30.16, 99.98
30.16, 99.98
30.16, 99.98
30.16, 99.98
30.16, 99.98
30.16, 99.98
30.16, 99.98
30.16, 99.98
30.16, 99.98
30.17, 99.98
30.17, 99.98
30.17, 99.98
30.17, 99.98
30.17, 99.98
30.17, 99.98
30.17, 99.98
30.17, 99.98
30.17, 99.98
30.17, 99.98
30.17, 99.98
30.17, 99.98
30.17, 99.98
30.17, 99.98
30.17, 99.98
30.17, 99.98
30.17, 99.98
30.17, 99.98
30.17, 99.98
30.17, 99.98
30.17, 99.98
30.17, 99.98
30.17, 99.98
30.17, 99.98
30.17, 99.98
30.17, 99.98
30.17, 99.98
30.17, 99.98
30.17, 99.98
30.17, 99.98
30.17, 99.98
30.17, 99.98
30.17, 99.98
30.17, 99.98
30.17, 99.98
30.17, 99.98
30.17, 99.98
30.17, 99.98
30.17, 99.98
30.17, 99.98
30.17, 99.98
30.17, 99.98
30.17, 99.98
30.17, 99.98
30.17, 99.98
30.17, 99.98
30.17, 99.98
30.17, 99.98
30.17, 99.98
30.17, 99.98
30.17, 99.98
30.18, 99.98
30.18, 99.98
30.18, 99.98
30.18, 99.98
30.18, 99.98
30.18, 99.98
30.18, 99.98
30.18, 99.98
30.18, 99.98
30.18, 99.98
30.18, 99.98
30.18, 99.98
30.18, 99.98
30.18, 99.98
30.18, 99.98
30.18, 99.98
30.18, 99.98
30.18, 99.98
30.18, 99.98
30.18, 99.98
30.18, 99.98
30.18, 99.98
30.18, 99.98
30.18, 99.98
30.18, 99.98
30.18, 99.98
30.18, 99.98
30.18, 99.98
30.18, 99.98
30.18, 99.98
30.18, 99.98
30.18, 99.98
30.18, 99.98
30.18, 99.98
30.18, 99.98
30.18, 99.98
30.18, 99.98
30.18, 99.98
30.18, 99.98
30.18, 99.98
30.18, 99.98
30.18, 99.98
30.18, 99.98
30.18, 99.98
30.18, 99.98
30.18, 99.98
30.18, 99.98
30.18, 99.98
30.18, 99.98
30.18, 99.98
30.18, 99.98
30.18, 99.98
30.18, 99.98
30.18, 99.98
30.18, 99.98
30.18, 99.98
30.18, 99.98
30.18, 99.98
30.18, 99.98
30.18, 99.97
30.18, 99.97
30.18, 99.97
30.18, 99.97
30.18, 99.97
30.18, 99.97
30.18, 99.97
30.18, 99.97
30.18, 99.97
30.18, 99.97
30.18, 99.97
30.18, 99.97
30.18, 99.97
30.18, 99.97
30.18, 99.97
30.18, 99.97
30.18, 99.97
30.18, 99.97
30.18, 99.97
30.18, 99.97
30.18, 99.97
30.18, 99.97
30.18, 99.97
30.18, 99.97
30.18, 99.97
30.18, 99.97
30.18, 99.97
30.18, 99.97
30.18, 99.97
30.18, 99.97
30.18, 99.97
30.18, 99.97
30.18, 99.97
30.18, 99.97
30.18, 99.97
30.18, 99.97
30.18, 99.97
30.18, 99.97
30.18, 99.97
30.18, 99.97
30.18, 99.97
30.18, 99.97
30.18, 99.97
30.18, 99.97
30.18, 99.97
30.18, 99.97
30.18, 99.97
30.18, 99.97
30.18, 99.97
30.18, 99.97
30.18, 99.97
30.18, 99.97
30.18, 99.97
30.18, 99.97
30.18, 99.97
30.18, 99.97
30.18, 99.97
30.18, 99.97
30.18, 99.97
30.18, 99.97
30.18, 99.97
30.18, 99.97
30.18, 99.97
30.18, 99.97
30.18, 99.97
30.18, 99.97
30.18, 99.97
30.18, 99.97
30.18, 99.97
30.18, 99.97
30.18, 99.97
30.18, 99.97
30.18, 99.97
30.18, 99.97
30.18, 99.97
30.18, 99.97
30.18, 99.97
30.18, 99.97
30.18, 99.97
30.18, 99.97
30.18, 99.97
30.18, 99.97
30.18, 99.97
30.18, 99.97
30.18, 99.97
30.18, 99.97
30.18, 99.97
30.18, 99.97
30.18, 99.97
30.18, 99.97
30.18, 99.97
30.18, 99.97
30.18, 99.97
30.18, 99.97
30.18, 99.97
30.18, 99.97
30.18, 99.97
30.18, 99.97
30.18, 99.97
30.18, 99.97
30.18, 99.97
30.18, 99.97
30.18, 99.97
30.18, 99.97
30.18, 99.97
30.18, 99.97
30.18, 99.97
30.18, 99.97
30.18, 99.97
30.18, 99.97
30.18, 99.97
30.18, 99.97
30.18, 99.97
30.18, 99.97
30.17, 99.97
30.17, 99.97
30.17, 99.97
30.17, 99.97
30.17, 99.97
30.17, 99.97
30.17, 99.97
30.17, 99.97
30.17, 99.97
30.17, 99.97
30.17, 99.97
30.17, 99.97
30.17, 99.97
30.17, 99.97
30.17, 99.97
30.17, 99.97
30.17, 99.97
30.17, 99.97
30.17, 99.97
30.17, 99.97
30.17, 99.97
30.17, 99.97
30.17, 99.97
30.17, 99.97
30.17, 99.97
30.17, 99.97
30.17, 99.97
30.17, 99.97
30.17, 99.97
30.17, 99.97
30.17, 99.97
30.17, 99.97
30.17, 99.97
30.17, 99.97
30.17, 99.97
30.17, 99.97
30.17, 99.97
30.17, 99.97
30.17, 99.97
30.17, 99.97
30.17, 99.97
30.17, 99.97
30.17, 99.97
30.17, 99.97
30.17, 99.97
30.17, 99.97
30.17, 99.97
30.17, 99.97
30.17, 99.97
30.17, 99.97
30.17, 99.97
30.17, 99.97
30.17, 99.97
30.17, 99.97
30.17, 99.97
30.17, 99.97
30.16, 99.97
30.16, 99.97
30.16, 99.97
30.16, 99.97
30.16, 99.97
30.16, 99.97
30.16, 99.97
30.16, 99.97
30.16, 99.97
30.16, 99.97
30.16, 99.97
30.16, 99.97
30.16, 99.97
30.16, 99.97
30.16, 99.97
30.16, 99.97
30.16, 99.97
30.16, 99.97
30.16, 99.97
30.16, 99.97
30.16, 99.97
30.16, 99.97
30.16, 99.97
30.16, 99.97
30.16, 99.97
30.16, 99.97
30.16, 99.97
30.16, 99.97
30.16, 99.97
30.16, 99.97
30.16, 99.97
30.16, 99.97
30.16, 99.97
30.16, 99.97
30.16, 99.97
30.16, 99.97
30.16, 99.97
30.15, 99.97
30.15, 99.97
30.15, 99.97
30.15, 99.97
30.15, 99.97
30.15, 99.97
30.15, 99.97
30.15, 99.97
30.15, 99.97
30.15, 99.97
30.15, 99.97
30.15, 99.97
30.15, 99.97
30.15, 99.97
30.15, 99.97
30.15, 99.97
30.15, 99.97
30.15, 99.97
30.15, 99.97
30.15, 99.97
30.15, 99.97
30.15, 99.97
30.15, 99.97
30.15, 99.97
30.15, 99.97
30.15, 99.97
30.15, 99.97
30.15, 99.97
30.15, 99.97
30.15, 99.97
30.14, 99.97
30.14, 99.97
30.14, 99.97
30.14, 99.97
30.14, 99.97
30.14, 99.97
30.14, 99.97
30.14, 99.97
30.14, 99.97
30.14, 99.97
30.14, 99.97
30.14, 99.97
30.14, 99.97
30.14, 99.97
30.14, 99.97
30.14, 99.97
30.14, 99.97
30.14, 99.97
30.14, 99.97
30.14, 99.97
30.14, 99.97
30.14, 99.97
30.14, 99.97
30.14, 99.97
30.14, 99.97
30.14, 99.97
30.14, 99.97
30.14, 99.97
30.13, 99.97
30.13, 99.97
30.13, 99.97
30.13, 99.97
30.13, 99.97
30.13, 99.97
30.13, 99.97
30.13, 99.97
30.13, 99.97
30.13, 99.97
30.13, 99.97
30.13, 99.97
30.13, 99.97
30.13, 99.97
30.13, 99.97
30.13, 99.97
30.13, 99.97
30.13, 99.97
30.13, 99.97
30.13, 99.97
30.13, 99.97
30.13, 99.97
30.13, 99.97
30.13, 99.97
30.13, 99.97
30.12, 99.97
30.12, 99.97
30.12, 99.97
30.12, 99.97
30.12, 99.97
30.12, 99.97
30.12, 99.97
30.12, 99.97
30.12, 99.97
30.12, 99.97
30.12, 99.97
30.12, 99.97
30.12, 99.97
30.12, 99.97
30.12, 99.97
30.12, 99.97
30.12, 99.97
30.12, 99.97
30.12, 99.97
30.12, 99.97
30.12, 99.97
30.12, 99.97
30.12, 99.97
30.11, 99.97
30.11, 99.97
30.11, 99.97
30.11, 99.97
30.11, 99.97
30.11, 99.97
30.11, 99.97
30.11, 99.97
30.11, 99.97
30.11, 99.97
30.11, 99.97
30.11, 99.97
30.11, 99.97
30.11, 99.97
30.11, 99.97
30.11, 99.97
30.11, 99.97
30.11, 99.97
30.11, 99.97
30.11, 99.97
30.11, 99.97
30.11, 99.97
30.1, 99.97
30.1, 99.97
30.1, 99.97
30.1, 99.97
30.1, 99.97
30.1, 99.97
30.1, 99.97
30.1, 99.97
30.1, 99.97
30.1, 99.97
30.1, 99.97
30.1, 99.97
30.1, 99.97
30.1, 99.97
30.1, 99.97
30.1, 99.97
30.1, 99.97
30.1, 99.97
30.1, 99.97
30.1, 99.97
30.1, 99.97
30.09, 99.97
30.09, 99.97
30.09, 99.97
30.09, 99.97
30.09, 99.97
30.09, 99.97
30.09, 99.97
30.09, 99.97
30.09, 99.97
30.09, 99.97
30.09, 99.97
30.09, 99.97
30.09, 99.97
30.09, 99.97
30.09, 99.97
30.09, 99.97
30.09, 99.97
30.09, 99.97
30.09, 99.97
30.09, 99.97
30.08, 99.97
30.08, 99.97
30.08, 99.97
30.08, 99.97
30.08, 99.97
30.08, 99.97
30.08, 99.97
30.08, 99.97
30.08, 99.97
30.08, 99.97
30.08, 99.97
30.08, 99.97
30.08, 99.97
30.08, 99.97
30.08, 99.97
30.08, 99.97
30.08, 99.97
30.08, 99.97
30.07, 99.97
30.07, 99.97
30.07, 99.97
30.07, 99.97
30.07, 99.97
30.07, 99.97
30.07, 99.97
30.07, 99.97
30.07, 99.97
30.07, 99.97
30.07, 99.97
30.07, 99.97
30.07, 99.97
30.07, 99.97
30.07, 99.97
30.07, 99.97
30.07, 99.97
30.07, 99.97
30.06, 99.97
30.06, 99.97
30.06, 99.97
30.06, 99.97
30.06, 99.97
30.06, 99.97
30.06, 99.97
30.06, 99.97
30.06, 99.97
30.06, 99.97
30.06, 99.97
30.06, 99.97
30.06, 99.97
30.06, 99.97
30.06, 99.97
30.06, 99.97
30.06, 99.97
30.05, 99.97
30.05, 99.97
30.05, 99.97
30.05, 99.97
30.05, 99.97
30.05, 99.97
30.05, 99.97
30.05, 99.97
30.05, 99.97
30.05, 99.97
30.05, 99.97
30.05, 99.97
30.05, 99.97
30.05, 99.97
30.05, 99.97
30.05, 99.97
30.05, 99.97
30.04, 99.97
30.04, 99.97
30.04, 99.97
30.04, 99.97
30.04, 99.97
30.04, 99.97
30.04, 99.97
30.04, 99.97
30.04, 99.97
30.04, 99.97
30.04, 99.97
30.04, 99.97
30.04, 99.97
30.04, 99.97
30.04, 99.97
30.04, 99.97
30.03, 99.97
30.03, 99.97
30.03, 99.97
30.03, 99.97
30.03, 99.97
30.03, 99.97
30.03, 99.97
30.03, 99.97
30.03, 99.97
30.03, 99.97
30.03, 99.97
30.03, 99.97
30.03, 99.97
30.03, 99.97
30.03, 99.97
30.03, 99.97
30.02, 99.97
30.02, 99.97
30.02, 99.97
30.02, 99.97
30.02, 99.97
30.02, 99.97
30.02, 99.97
30.02, 99.97
30.02, 99.97
30.02, 99.97
30.02, 99.97
30.02, 99.97
30.02, 99.97
30.02, 99.97
30.02, 99.97
30.01, 99.97
30.01, 99.97
30.01, 99.97
30.01, 99.97
30.01, 99.97
30.01, 99.97
30.01, 99.97
30.01, 99.97
30.01, 99.97
30.01, 99.97
30.01, 99.97
30.01, 99.97
30.01, 99.97
30.01, 99.97
30.01, 99.97
30.0, 99.97
30.0, 99.97
30.0, 99.97
30.0, 99.97
30.0, 99.97
30.0, 99.97
30.0, 99.97
30.0, 99.97
30.0, 99.97
30.0, 99.97
30.0, 99.97
30.0, 99.97
30.0, 99.97
30.0, 99.97
29.99, 99.97
29.99, 99.97
29.99, 99.97
29.99, 99.97
29.99, 99.97
29.99, 99.97
29.99, 99.97
29.99, 99.97
29.99, 99.97
29.99, 99.97
29.99, 99.97
29.99, 99.97
29.99, 99.97
29.99, 99.97
29.98, 99.97
29.98, 99.97
29.98, 99.97
29.98, 99.97
29.98, 99.97
29.98, 99.97
29.98, 99.97
29.98, 99.97
29.98, 99.97
29.98, 99.97
29.98, 99.97
29.98, 99.97
29.98, 99.97
29.98, 99.97
29.97, 99.97
29.97, 99.97
29.97, 99.97
29.97, 99.97
29.97, 99.97
29.97, 99.97
29.97, 99.97
29.97, 99.97
29.97, 99.97
29.97, 99.97
29.97, 99.97
29.97, 99.97
29.97, 99.97
29.96, 99.97
29.96, 99.97
29.96, 99.97
29.96, 99.97
29.96, 99.97
29.96, 99.97
29.96, 99.97
29.96, 99.97
29.96, 99.97
29.96, 99.97
29.96, 99.97
29.96, 99.97
29.96, 99.97
29.96, 99.97
29.95, 99.97
29.95, 99.97
29.95, 99.97
29.95, 99.97
29.95, 99.97
29.95, 99.97
29.95, 99.97
29.95, 99.97
29.95, 99.97
29.95, 99.97
29.95, 99.97
29.95, 99.97
29.95, 99.97
29.94, 99.97
29.94, 99.97
29.94, 99.97
29.94, 99.97
29.94, 99.97
29.94, 99.97
29.94, 99.97
29.94, 99.97
29.94, 99.97
29.94, 99.97
29.94, 99.97
29.94, 99.97
29.93, 99.97
29.93, 99.97
29.93, 99.97
29.93, 99.97
29.93, 99.97
29.93, 99.97
29.93, 99.97
29.93, 99.97
29.93, 99.97
29.93, 99.97
29.93, 99.97
29.93, 99.97
29.93, 99.97
29.92, 99.97
29.92, 99.97
29.92, 99.97
29.92, 99.97
29.92, 99.97
29.92, 99.97
29.92, 99.97
29.92, 99.97
29.92, 99.97
29.92, 99.97
29.92, 99.97
29.92, 99.97
29.91, 99.97
29.91, 99.97
29.91, 99.97
29.91, 99.97
29.91, 99.97
29.91, 99.97
29.91, 99.97
29.91, 99.97
29.91, 99.97
29.91, 99.97
29.91, 99.97
29.91, 99.97
29.9, 99.97
29.9, 99.97
29.9, 99.97
29.9, 99.97
29.9, 99.97
29.9, 99.97
29.9, 99.97
29.9, 99.97
29.9, 99.97
29.9, 99.97
29.9, 99.97
29.89, 99.97
29.89, 99.97
29.89, 99.97
29.89, 99.97
29.89, 99.97
29.89, 99.97
29.89, 99.97
29.89, 99.97
29.89, 99.97
29.89, 99.97
29.89, 99.97
29.89, 99.97
29.88, 99.97
29.88, 99.97
29.88, 99.97
29.88, 99.97
29.88, 99.97
29.88, 99.97
29.88, 99.97
29.88, 99.97
29.88, 99.97
29.88, 99.97
29.88, 99.97
29.88, 99.97
29.87, 99.97
29.87, 99.97
29.87, 99.97
29.87, 99.97
29.87, 99.97
29.87, 99.97
29.87, 99.97
29.87, 99.97
29.87, 99.97
29.87, 99.97
29.87, 99.97
29.86, 99.97
29.86, 99.97
29.86, 99.97
29.86, 99.97
29.86, 99.97
29.86, 99.97
29.86, 99.97
29.86, 99.97
29.86, 99.97
29.86, 99.97
29.86, 99.97
29.86, 99.97
29.85, 99.97
29.85, 99.97
29.85, 99.97
29.85, 99.97
29.85, 99.97
29.85, 99.97
29.85, 99.97
29.85, 99.97
29.85, 99.97
29.85, 99.97
29.85, 99.97
29.84, 99.97
29.84, 99.97
29.84, 99.97
29.84, 99.97
29.84, 99.97
29.84, 99.97
29.84, 99.97
29.84, 99.97
29.84, 99.97
29.84, 99.97
29.84, 99.97
29.84, 99.97
29.83, 99.97
29.83, 99.97
29.83, 99.97
29.83, 99.97
29.83, 99.97
29.83, 99.97
29.83, 99.97
29.83, 99.97
29.83, 99.97
29.83, 99.97
29.83, 99.97
29.83, 99.97
29.82, 99.97
29.82, 99.97
29.82, 99.97
29.82, 99.97
29.82, 99.97
29.82, 99.97
29.82, 99.97
29.82, 99.97
29.82, 99.97
29.82, 99.97
29.82, 99.97
29.82, 99.97
29.81, 99.97
29.81, 99.97
29.81, 99.97
29.81, 99.97
29.81, 99.97
29.81, 99.97
29.81, 99.97
29.81, 99.97
29.81, 99.97
29.81, 99.97
29.81, 99.97
29.81, 99.97
29.81, 99.97
29.81, 99.97
29.8, 99.97
29.8, 99.97
29.8, 99.97
29.8, 99.97
29.8, 99.97
29.8, 99.97
29.8, 99.97
29.8, 99.97
29.8, 99.97
29.8, 99.97
29.8, 99.97
29.8, 99.97
29.8, 99.97
29.8, 99.97
29.79, 99.97
29.79, 99.97
29.79, 99.97
29.79, 99.97
29.79, 99.97
29.79, 99.97
29.79, 99.97
29.79, 99.97
29.79, 99.97
29.79, 99.97
29.79, 99.97
29.79, 99.97
29.79, 99.97
29.79, 99.97
29.79, 99.97
29.78, 99.97
29.78, 99.97
29.78, 99.97
29.78, 99.97
29.78, 99.97
29.78, 99.97
29.78, 99.97
29.78, 99.97
29.78, 99.97
29.78, 99.97
29.78, 99.97
29.78, 99.97
29.78, 99.97
29.78, 99.97
29.78, 99.97
29.78, 99.97
29.78, 99.97
29.77, 99.97
29.77, 99.97
29.77, 99.97
29.77, 99.97
29.77, 99.97
29.77, 99.97
29.77, 99.97
29.77, 99.97
29.77, 99.97
29.77, 99.97
29.77, 99.97
29.77, 99.97
29.77, 99.97
29.77, 99.97
29.77, 99.97
29.77, 99.97
29.77, 99.97
29.76, 99.97
29.76, 99.97
29.76, 99.97
29.76, 99.97
29.76, 99.97
29.76, 99.97
29.76, 99.97
29.76, 99.97
29.76, 99.97
29.76, 99.97
29.76, 99.97
29.76, 99.97
29.76, 99.97
29.76, 99.97
29.76, 99.97
29.76, 99.97
29.76, 99.97
29.75, 99.97
29.75, 99.97
29.75, 99.97
29.75, 99.97
29.75, 99.97
29.75, 99.97
29.75, 99.97
29.75, 99.97
29.75, 99.97
29.75, 99.97
29.75, 99.97
29.75, 99.97
29.75, 99.97
29.75, 99.97
29.75, 99.97
29.75, 99.97
29.75, 99.97
29.75, 99.97
29.75, 99.97
29.74, 99.97
29.74, 99.97
29.74, 99.97
29.74, 99.97
29.74, 99.97
29.74, 99.97
29.74, 99.97
29.74, 99.97
29.74, 99.97
29.74, 99.97
29.74, 99.97
29.74, 99.97
29.74, 99.97
29.74, 99.97
29.74, 99.97
29.74, 99.97
29.74, 99.97
29.74, 99.97
29.74, 99.97
29.74, 99.97
29.73, 99.97
29.73, 99.97
29.73, 99.97
29.73, 99.97
29.73, 99.97
29.73, 99.97
29.73, 99.97
29.73, 99.97
29.73, 99.97
29.73, 99.97
29.73, 99.97
29.73, 99.97
29.73, 99.97
29.73, 99.97
29.73, 99.97
29.73, 99.97
29.73, 99.97
29.73, 99.97
29.73, 99.97
29.73, 99.97
29.73, 99.97
29.73, 99.97
29.73, 99.97
29.73, 99.97
29.72, 99.97
29.72, 99.97
29.72, 99.97
29.72, 99.97
29.72, 99.97
29.72, 99.97
29.72, 99.97
29.72, 99.97
29.72, 99.97
29.72, 99.97
29.72, 99.97
29.72, 99.97
29.72, 99.97
29.72, 99.97
29.72, 99.97
29.72, 99.97
29.72, 99.97
29.72, 99.97
29.72, 99.97
29.72, 99.97
29.72, 99.97
29.72, 99.97
29.72, 99.97
29.72, 99.97
29.72, 99.97
29.72, 99.97
29.72, 99.97
29.71, 99.97
29.71, 99.97
29.71, 99.97
29.71, 99.97
29.71, 99.97
29.71, 99.97
29.71, 99.97
29.71, 99.97
29.71, 99.97
29.71, 99.97
29.71, 99.97
29.71, 99.97
29.71, 99.97
29.71, 99.97
29.71, 99.97
29.71, 99.97
29.71, 99.97
29.71, 99.97
29.71, 99.97
29.71, 99.97
29.71, 99.97
29.71, 99.97
29.71, 99.97
29.71, 99.97
29.71, 99.97
29.71, 99.97
29.71, 99.97
29.71, 99.97
29.71, 99.97
29.71, 99.97
29.71, 99.97
29.71, 99.97
29.7, 99.97
29.7, 99.97
29.7, 99.97
29.7, 99.97
29.7, 99.97
29.7, 99.97
29.7, 99.97
29.7, 99.97
29.7, 99.97
29.7, 99.97
29.7, 99.97
29.7, 99.97
29.7, 99.97
29.7, 99.97
29.7, 99.97
29.7, 99.97
29.7, 99.97
29.7, 99.97
29.7, 99.97
29.7, 99.97
29.7, 99.97
29.7, 99.97
29.7, 99.97
29.7, 99.97
29.7, 99.97
29.7, 99.97
29.7, 99.97
29.7, 99.97
29.7, 99.97
29.7, 99.97
29.7, 99.97
29.7, 99.97
29.7, 99.97
29.7, 99.97
29.7, 99.97
29.7, 99.97
29.7, 99.97
29.69, 99.97
29.69, 99.97
29.69, 99.97
29.69, 99.97
29.69, 99.97
29.69, 99.97
29.69, 99.97
29.69, 99.97
29.69, 99.97
29.69, 99.97
29.69, 99.97
29.69, 99.97
29.69, 99.97
29.69, 99.97
29.69, 99.97
29.69, 99.97
29.69, 99.97
29.69, 99.97
29.69, 99.97
29.69, 99.97
29.69, 99.97
29.69, 99.97
29.69, 99.97
29.69, 99.97
29.69, 99.97
29.69, 99.97
29.69, 99.97
29.69, 99.97
29.69, 99.97
29.69, 99.97
29.69, 99.97
29.69, 99.97
29.69, 99.97
29.69, 99.97
29.69, 99.97
29.69, 99.97
29.69, 99.97
29.69, 99.97
29.69, 99.97
29.69, 99.97
29.69, 99.97
29.69, 99.97
29.69, 99.97
29.69, 99.97
29.69, 99.97
29.69, 99.97
29.69, 99.97
29.69, 99.97
29.69, 99.97
29.69, 99.97
29.69, 99.97
29.69, 99.97
29.69, 99.97
29.69, 99.97
29.69, 99.97
29.68, 99.97
29.68, 99.97
29.68, 99.97
29.68, 99.97
29.68, 99.97
29.68, 99.97
29.68, 99.97
29.68, 99.97
29.68, 99.97
29.68, 99.97
29.68, 99.97
29.68, 99.97
29.68, 99.97
29.68, 99.97
29.68, 99.97
29.68, 99.97
29.68, 99.97
29.68, 99.97
29.68, 99.97
29.68, 99.97
29.68, 99.97
29.68, 99.97
29.68, 99.97
29.68, 99.97
29.68, 99.97
29.68, 99.97
29.68, 99.97
29.68, 99.97
29.68, 99.97
29.68, 99.97
29.68, 99.97
29.68, 99.97
29.68, 99.97
29.68, 99.97
29.68, 99.97
29.68, 99.97
29.68, 99.97
29.68, 99.97
29.68, 99.97
29.68, 99.97
29.68, 99.97
29.68, 99.97
29.68, 99.97
29.68, 99.97
29.68, 99.97
29.68, 99.97
29.68, 99.97
29.68, 99.97
29.68, 99.97
29.68, 99.97
29.68, 99.97
29.68, 99.97
29.68, 99.97
29.68, 99.97
29.68, 99.97
29.68, 99.97
29.68, 99.97
29.68, 99.97
29.68, 99.97
29.68, 99.97
29.68, 99.97
29.68, 99.97
29.68, 99.97
29.68, 99.97
29.68, 99.97
29.68, 99.97
29.68, 99.97
29.68, 99.97
29.68, 99.97
29.68, 99.97
29.68, 99.97
29.68, 99.97
29.68, 99.97
29.68, 99.97
29.68, 99.97
29.68, 99.97
29.68, 99.97
29.68, 99.97
29.68, 99.97
29.68, 99.97
29.68, 99.97
29.68, 99.97
29.68, 99.97
29.68, 99.97
29.68, 99.97
29.68, 99.97
29.68, 99.97
29.68, 99.97
29.68, 99.97
29.68, 99.97
29.68, 99.97
29.68, 99.97
29.68, 99.97
29.68, 99.97
29.68, 99.97
29.68, 99.97
29.68, 99.97
29.68, 99.97
29.68, 99.97
29.68, 99.97
29.68, 99.97
29.68, 99.97
29.68, 99.97
29.68, 99.97
29.68, 99.97
29.68, 99.97
29.68, 99.97
29.68, 99.97
29.68, 99.97
29.68, 99.97
29.68, 99.97
29.68, 99.97
29.68, 99.97
29.68, 99.97
29.68, 99.97
29.68, 99.97
29.68, 99.97
29.68, 99.97
29.68, 99.97
29.68, 99.97
29.68, 99.97
29.68, 99.97
29.68, 99.97
29.68, 99.97
29.68, 99.97
29.68, 99.97
29.68, 99.97
29.68, 99.97
29.68, 99.97
29.68, 99.97
29.68, 99.97
29.68, 99.97
29.68, 99.97
29.68, 99.97
29.68, 99.97
29.68, 99.97
29.68, 99.97
29.68, 99.97
29.68, 99.97
29.68, 99.97
29.68, 99.97
29.68, 99.97
29.68, 99.97
29.68, 99.97
29.68, 99.97
29.68, 99.97
29.68, 99.97
29.68, 99.97
##END=$$ End of the data block
