##TITLE=Spectrum
##JCAMP-DX=5.00 $$ chemotion-converter-app (1.7.0)
##DATA TYPE=CYCLIC VOLTAMMETRY
##DATA CLASS=XYPOINTS
##ORIGIN=
##OWNER=
##XUNITS=Voltage vs Ref
##YUNITS=Ampere
##SCAN_RATE=0.19960902
##STEP_SIZE=0.00197972
##VOLTAGE_LIMIT_END=0.29998779
##VOLTAGE_START=0.30197143
##VOLTAGE_LIMIT_ONE=0.70068359
##VOLTAGE_LIMIT_TWO=0.19882202
##FIRSTX=0.301971435546875
##LASTX=0.29998779296875
##MINX=0.198822021484375
##MAXX=0.70068359375
##MINY=-1.9140625e-06
##MAXY=2.26104736328125e-06
##NPOINTS=506
##FIRSTY=-4.32098388671875E-07
##XUNITS=Voltage vs Ref
##YUNITS=Ampere
##XYPOINTS=(XY..XY)
0.301971435546875, -4.32098388671875E-07
0.303955078125, -4.25567626953125E-07
0.305938720703125, -4.19036865234375E-07
0.30792236328125, -4.1180419921875E-07
0.309906005859375, -4.04815673828125E-07
0.3118896484375, -3.97918701171875E-07
0.313873291015625, -3.89892578125E-07
0.31585693359375, -3.8226318359375E-07
0.317840576171875, -3.7451171875E-07
0.31982421875, -3.66302490234375E-07
0.321807861328125, -3.5791015625E-07
0.32379150390625, -3.49029541015625E-07
0.325775146484375, -3.40057373046875E-07
0.3277587890625, -3.30474853515625E-07
0.329742431640625, -3.204345703125E-07
0.33172607421875, -3.1072998046875E-07
0.333709716796875, -2.99652099609375E-07
0.335693359375, -2.89337158203125E-07
0.337677001953125, -2.777099609375E-07
0.33966064453125, -2.65533447265625E-07
0.341644287109375, -2.530517578125E-07
0.3436279296875, -2.40020751953125E-07
0.345611572265625, -2.26593017578125E-07
0.34759521484375, -2.12066650390625E-07
0.349578857421875, -1.97479248046875E-07
0.3515625, -1.8170166015625E-07
0.353546142578125, -1.650390625E-07
0.35552978515625, -1.483154296875E-07
0.357513427734375, -1.3018798828125E-07
0.3594970703125, -1.11053466796875E-07
0.361480712890625, -9.0972900390625E-08
0.36346435546875, -6.976318359375E-08
0.365447998046875, -4.8248291015625E-08
0.367431640625, -2.39166259765625E-08
0.369415283203125, -9.765625E-10
0.37139892578125, 2.54302978515625E-08
0.373382568359375, 5.0750732421875E-08
0.3753662109375, 7.9132080078125E-08
0.377349853515625, 1.06536865234375E-07
0.37933349609375, 1.38427734375E-07
0.381317138671875, 1.68182373046875E-07
0.38330078125, 2.02056884765625E-07
0.385284423828125, 2.35687255859375E-07
0.38726806640625, 2.71636962890625E-07
0.389251708984375, 3.079833984375E-07
0.3912353515625, 3.470458984375E-07
0.393218994140625, 3.865966796875E-07
0.39520263671875, 4.28131103515625E-07
0.397186279296875, 4.70916748046875E-07
0.399169921875, 5.1446533203125E-07
0.401153564453125, 5.599365234375E-07
0.40313720703125, 6.0601806640625E-07
0.405120849609375, 6.5399169921875E-07
0.4071044921875, 7.025146484375E-07
0.409088134765625, 7.53173828125E-07
0.41107177734375, 8.026123046875E-07
0.413055419921875, 8.563232421875E-07
0.4150390625, 9.075927734375E-07
0.417022705078125, 9.6221923828125E-07
0.41900634765625, 1.0150146484375E-06
0.420989990234375, 1.07025146484375E-06
0.4229736328125, 1.124267578125E-06
0.424957275390625, 1.1810302734375E-06
0.42694091796875, 1.23443603515625E-06
0.428924560546875, 1.2884521484375E-06
0.430908203125, 1.34368896484375E-06
0.432891845703125, 1.39739990234375E-06
0.43487548828125, 1.45050048828125E-06
0.436859130859375, 1.502685546875E-06
0.4388427734375, 1.55426025390625E-06
0.440826416015625, 1.6046142578125E-06
0.44281005859375, 1.6534423828125E-06
0.444793701171875, 1.70196533203125E-06
0.44677734375, 1.74774169921875E-06
0.448760986328125, 1.7926025390625E-06
0.45074462890625, 1.83502197265625E-06
0.452728271484375, 1.87652587890625E-06
0.4547119140625, 1.9158935546875E-06
0.456695556640625, 1.95281982421875E-06
0.45867919921875, 1.98760986328125E-06
0.460662841796875, 2.01934814453125E-06
0.462646484375, 2.05108642578125E-06
0.464630126953125, 2.0794677734375E-06
0.46661376953125, 2.10357666015625E-06
0.468597412109375, 2.12860107421875E-06
0.4705810546875, 2.1502685546875E-06
0.472564697265625, 2.17132568359375E-06
0.47454833984375, 2.1875E-06
0.476531982421875, 2.2039794921875E-06
0.478515625, 2.21588134765625E-06
0.480499267578125, 2.22900390625E-06
0.48248291015625, 2.237548828125E-06
0.484466552734375, 2.24609375E-06
0.4864501953125, 2.2515869140625E-06
0.488433837890625, 2.2564697265625E-06
0.49041748046875, 2.25921630859375E-06
0.492401123046875, 2.2607421875E-06
0.494384765625, 2.26104736328125E-06
0.496368408203125, 2.25921630859375E-06
0.49835205078125, 2.25677490234375E-06
0.500335693359375, 2.25372314453125E-06
0.5023193359375, 2.2479248046875E-06
0.504302978515625, 2.242431640625E-06
0.50628662109375, 2.23541259765625E-06
0.508270263671875, 2.22808837890625E-06
0.51025390625, 2.21954345703125E-06
0.512237548828125, 2.21160888671875E-06
0.51422119140625, 2.20123291015625E-06
0.516204833984375, 2.19207763671875E-06
0.5181884765625, 2.18109130859375E-06
0.520172119140625, 2.1710205078125E-06
0.52215576171875, 2.15911865234375E-06
0.524139404296875, 2.1484375E-06
0.526123046875, 2.13623046875E-06
0.528106689453125, 2.1234130859375E-06
0.53009033203125, 2.11151123046875E-06
0.532073974609375, 2.0989990234375E-06
0.5340576171875, 2.0867919921875E-06
0.536041259765625, 2.07489013671875E-06
0.53802490234375, 2.0623779296875E-06
0.540008544921875, 2.049560546875E-06
0.5419921875, 2.03643798828125E-06
0.543975830078125, 2.0245361328125E-06
0.54595947265625, 2.0111083984375E-06
0.547943115234375, 1.99981689453125E-06
0.5499267578125, 1.9866943359375E-06
0.551910400390625, 1.97540283203125E-06
0.55389404296875, 1.96197509765625E-06
0.555877685546875, 1.95037841796875E-06
0.557861328125, 1.93878173828125E-06
0.559844970703125, 1.9268798828125E-06
0.56182861328125, 1.915283203125E-06
0.563812255859375, 1.9036865234375E-06
0.5657958984375, 1.8927001953125E-06
0.567779541015625, 1.88201904296875E-06
0.56976318359375, 1.87103271484375E-06
0.571746826171875, 1.86004638671875E-06
0.57373046875, 1.84906005859375E-06
0.575714111328125, 1.8389892578125E-06
0.57769775390625, 1.82861328125E-06
0.579681396484375, 1.81854248046875E-06
0.5816650390625, 1.807861328125E-06
0.583648681640625, 1.79901123046875E-06
0.58563232421875, 1.7889404296875E-06
0.587615966796875, 1.77978515625E-06
0.589599609375, 1.7706298828125E-06
0.591583251953125, 1.7608642578125E-06
0.59356689453125, 1.75262451171875E-06
0.595550537109375, 1.7431640625E-06
0.5975341796875, 1.7352294921875E-06
0.599517822265625, 1.7266845703125E-06
0.60150146484375, 1.71783447265625E-06
0.603485107421875, 1.71051025390625E-06
0.60546875, 1.7022705078125E-06
0.607452392578125, 1.6949462890625E-06
0.60943603515625, 1.68731689453125E-06
0.611419677734375, 1.6796875E-06
0.6134033203125, 1.67205810546875E-06
0.615386962890625, 1.6650390625E-06
0.61737060546875, 1.65740966796875E-06
0.619354248046875, 1.6510009765625E-06
0.621337890625, 1.64337158203125E-06
0.623321533203125, 1.6375732421875E-06
0.62530517578125, 1.6314697265625E-06
0.627288818359375, 1.624755859375E-06
0.6292724609375, 1.61865234375E-06
0.631256103515625, 1.612548828125E-06
0.63323974609375, 1.60614013671875E-06
0.635223388671875, 1.600341796875E-06
0.63720703125, 1.59393310546875E-06
0.639190673828125, 1.58935546875E-06
0.64117431640625, 1.58294677734375E-06
0.643157958984375, 1.57806396484375E-06
0.6451416015625, 1.57318115234375E-06
0.647125244140625, 1.5673828125E-06
0.64910888671875, 1.5625E-06
0.651092529296875, 1.5570068359375E-06
0.653076171875, 1.552734375E-06
0.655059814453125, 1.54754638671875E-06
0.65704345703125, 1.54327392578125E-06
0.659027099609375, 1.5386962890625E-06
0.6610107421875, 1.53472900390625E-06
0.662994384765625, 1.52984619140625E-06
0.66497802734375, 1.52618408203125E-06
0.666961669921875, 1.52130126953125E-06
0.6689453125, 1.51885986328125E-06
0.670928955078125, 1.513671875E-06
0.67291259765625, 1.510009765625E-06
0.674896240234375, 1.50634765625E-06
0.6768798828125, 1.502685546875E-06
0.678863525390625, 1.4990234375E-06
0.68084716796875, 1.49566650390625E-06
0.682830810546875, 1.49261474609375E-06
0.684814453125, 1.4892578125E-06
0.686798095703125, 1.48590087890625E-06
0.68878173828125, 1.4825439453125E-06
0.690765380859375, 1.4801025390625E-06
0.6927490234375, 1.47674560546875E-06
0.694732666015625, 1.474609375E-06
0.69671630859375, 1.470947265625E-06
0.698699951171875, 1.46881103515625E-06
0.70068359375, 1.466064453125E-06
0.698699951171875, 1.44134521484375E-06
0.69671630859375, 1.42181396484375E-06
0.694732666015625, 1.40411376953125E-06
0.6927490234375, 1.38763427734375E-06
0.690765380859375, 1.37298583984375E-06
0.68878173828125, 1.35894775390625E-06
0.686798095703125, 1.34613037109375E-06
0.684814453125, 1.3330078125E-06
0.682830810546875, 1.3214111328125E-06
0.68084716796875, 1.3104248046875E-06
0.678863525390625, 1.29913330078125E-06
0.6768798828125, 1.28753662109375E-06
0.674896240234375, 1.27838134765625E-06
0.67291259765625, 1.26800537109375E-06
0.670928955078125, 1.258544921875E-06
0.6689453125, 1.248779296875E-06
0.666961669921875, 1.240234375E-06
0.66497802734375, 1.231689453125E-06
0.662994384765625, 1.22283935546875E-06
0.6610107421875, 1.2139892578125E-06
0.659027099609375, 1.20574951171875E-06
0.65704345703125, 1.19720458984375E-06
0.655059814453125, 1.1895751953125E-06
0.653076171875, 1.18255615234375E-06
0.651092529296875, 1.17340087890625E-06
0.64910888671875, 1.16668701171875E-06
0.647125244140625, 1.15814208984375E-06
0.6451416015625, 1.15203857421875E-06
0.643157958984375, 1.14471435546875E-06
0.64117431640625, 1.1370849609375E-06
0.639190673828125, 1.13067626953125E-06
0.63720703125, 1.12335205078125E-06
0.635223388671875, 1.116943359375E-06
0.63323974609375, 1.10992431640625E-06
0.631256103515625, 1.10321044921875E-06
0.6292724609375, 1.09710693359375E-06
0.627288818359375, 1.0894775390625E-06
0.62530517578125, 1.08489990234375E-06
0.623321533203125, 1.077880859375E-06
0.621337890625, 1.0711669921875E-06
0.619354248046875, 1.06536865234375E-06
0.61737060546875, 1.05926513671875E-06
0.615386962890625, 1.05316162109375E-06
0.6134033203125, 1.04736328125E-06
0.611419677734375, 1.041259765625E-06
0.60943603515625, 1.03485107421875E-06
0.607452392578125, 1.02935791015625E-06
0.60546875, 1.02264404296875E-06
0.603485107421875, 1.01715087890625E-06
0.60150146484375, 1.01104736328125E-06
0.599517822265625, 1.00494384765625E-06
0.5975341796875, 9.979248046875E-07
0.595550537109375, 9.92431640625E-07
0.59356689453125, 9.8724365234375E-07
0.591583251953125, 9.808349609375E-07
0.589599609375, 9.7412109375E-07
0.587615966796875, 9.6832275390625E-07
0.58563232421875, 9.6221923828125E-07
0.583648681640625, 9.5611572265625E-07
0.5816650390625, 9.4940185546875E-07
0.579681396484375, 9.43603515625E-07
0.57769775390625, 9.3597412109375E-07
0.575714111328125, 9.307861328125E-07
0.57373046875, 9.2315673828125E-07
0.571746826171875, 9.1705322265625E-07
0.56976318359375, 9.1064453125E-07
0.567779541015625, 9.0240478515625E-07
0.5657958984375, 8.9630126953125E-07
0.563812255859375, 8.88671875E-07
0.56182861328125, 8.8165283203125E-07
0.559844970703125, 8.740234375E-07
0.557861328125, 8.6639404296875E-07
0.555877685546875, 8.575439453125E-07
0.55389404296875, 8.4930419921875E-07
0.551910400390625, 8.41064453125E-07
0.5499267578125, 8.319091796875E-07
0.547943115234375, 8.2305908203125E-07
0.54595947265625, 8.135986328125E-07
0.543975830078125, 8.0413818359375E-07
0.5419921875, 7.9376220703125E-07
0.540008544921875, 7.8338623046875E-07
0.53802490234375, 7.733154296875E-07
0.536041259765625, 7.623291015625E-07
0.5340576171875, 7.501220703125E-07
0.532073974609375, 7.38525390625E-07
0.53009033203125, 7.2540283203125E-07
0.528106689453125, 7.1258544921875E-07
0.526123046875, 6.9854736328125E-07
0.524139404296875, 6.842041015625E-07
0.52215576171875, 6.683349609375E-07
0.520172119140625, 6.53076171875E-07
0.5181884765625, 6.365966796875E-07
0.516204833984375, 6.18896484375E-07
0.51422119140625, 6.005859375E-07
0.512237548828125, 5.8258056640625E-07
0.51025390625, 5.621337890625E-07
0.508270263671875, 5.413818359375E-07
0.50628662109375, 5.18798828125E-07
0.504302978515625, 4.9713134765625E-07
0.5023193359375, 4.7271728515625E-07
0.500335693359375, 4.47845458984375E-07
0.49835205078125, 4.20867919921875E-07
0.496368408203125, 3.93280029296875E-07
0.494384765625, 3.63128662109375E-07
0.492401123046875, 3.32733154296875E-07
0.49041748046875, 3.016357421875E-07
0.488433837890625, 2.67822265625E-07
0.4864501953125, 2.34893798828125E-07
0.484466552734375, 1.9775390625E-07
0.48248291015625, 1.61895751953125E-07
0.480499267578125, 1.2255859375E-07
0.478515625, 8.2672119140625E-08
0.476531982421875, 4.0582275390625E-08
0.47454833984375, -2.7374267578125E-09
0.472564697265625, -4.7332763671875E-08
0.4705810546875, -9.3536376953125E-08
0.468597412109375, -1.4227294921875E-07
0.46661376953125, -1.91314697265625E-07
0.464630126953125, -2.40936279296875E-07
0.462646484375, -2.9205322265625E-07
0.460662841796875, -3.4613037109375E-07
0.45867919921875, -4.00299072265625E-07
0.456695556640625, -4.56451416015625E-07
0.4547119140625, -5.125732421875E-07
0.452728271484375, -5.6878662109375E-07
0.45074462890625, -6.2799072265625E-07
0.448760986328125, -6.8359375E-07
0.44677734375, -7.43408203125E-07
0.444793701171875, -8.0169677734375E-07
0.44281005859375, -8.612060546875E-07
0.440826416015625, -9.2132568359375E-07
0.4388427734375, -9.7900390625E-07
0.436859130859375, -1.0382080078125E-06
0.43487548828125, -1.09619140625E-06
0.432891845703125, -1.15234375E-06
0.430908203125, -1.20849609375E-06
0.428924560546875, -1.2640380859375E-06
0.42694091796875, -1.31622314453125E-06
0.424957275390625, -1.3677978515625E-06
0.4229736328125, -1.41815185546875E-06
0.420989990234375, -1.466064453125E-06
0.41900634765625, -1.51397705078125E-06
0.417022705078125, -1.5570068359375E-06
0.4150390625, -1.5985107421875E-06
0.413055419921875, -1.63726806640625E-06
0.41107177734375, -1.6741943359375E-06
0.409088134765625, -1.708984375E-06
0.4071044921875, -1.7388916015625E-06
0.405120849609375, -1.768798828125E-06
0.40313720703125, -1.79473876953125E-06
0.401153564453125, -1.81854248046875E-06
0.399169921875, -1.839599609375E-06
0.397186279296875, -1.85699462890625E-06
0.39520263671875, -1.873779296875E-06
0.393218994140625, -1.8853759765625E-06
0.3912353515625, -1.89605712890625E-06
0.389251708984375, -1.90277099609375E-06
0.38726806640625, -1.90948486328125E-06
0.385284423828125, -1.912841796875E-06
0.38330078125, -1.9140625E-06
0.381317138671875, -1.9140625E-06
0.37933349609375, -1.91192626953125E-06
0.377349853515625, -1.90673828125E-06
0.3753662109375, -1.900634765625E-06
0.373382568359375, -1.8939208984375E-06
0.37139892578125, -1.88568115234375E-06
0.369415283203125, -1.87530517578125E-06
0.367431640625, -1.86370849609375E-06
0.365447998046875, -1.8505859375E-06
0.36346435546875, -1.83929443359375E-06
0.361480712890625, -1.82403564453125E-06
0.3594970703125, -1.8096923828125E-06
0.357513427734375, -1.7938232421875E-06
0.35552978515625, -1.77734375E-06
0.353546142578125, -1.7608642578125E-06
0.3515625, -1.7437744140625E-06
0.349578857421875, -1.7266845703125E-06
0.34759521484375, -1.70867919921875E-06
0.345611572265625, -1.69036865234375E-06
0.3436279296875, -1.6729736328125E-06
0.341644287109375, -1.6546630859375E-06
0.33966064453125, -1.63726806640625E-06
0.337677001953125, -1.617431640625E-06
0.335693359375, -1.600341796875E-06
0.333709716796875, -1.58172607421875E-06
0.33172607421875, -1.5643310546875E-06
0.329742431640625, -1.54571533203125E-06
0.3277587890625, -1.52862548828125E-06
0.325775146484375, -1.510009765625E-06
0.32379150390625, -1.49322509765625E-06
0.321807861328125, -1.47552490234375E-06
0.31982421875, -1.45904541015625E-06
0.317840576171875, -1.44134521484375E-06
0.31585693359375, -1.4251708984375E-06
0.313873291015625, -1.40838623046875E-06
0.3118896484375, -1.39190673828125E-06
0.309906005859375, -1.3763427734375E-06
0.30792236328125, -1.36016845703125E-06
0.305938720703125, -1.3458251953125E-06
0.303955078125, -1.33026123046875E-06
0.301971435546875, -1.31591796875E-06
0.29998779296875, -1.30126953125E-06
0.298004150390625, -1.2872314453125E-06
0.2960205078125, -1.2725830078125E-06
0.294036865234375, -1.25885009765625E-06
0.29205322265625, -1.2457275390625E-06
0.290069580078125, -1.23199462890625E-06
0.2880859375, -1.21978759765625E-06
0.286102294921875, -1.2066650390625E-06
0.28411865234375, -1.1944580078125E-06
0.282135009765625, -1.181640625E-06
0.2801513671875, -1.16973876953125E-06
0.278167724609375, -1.1578369140625E-06
0.27618408203125, -1.146240234375E-06
0.274200439453125, -1.1358642578125E-06
0.272216796875, -1.12396240234375E-06
0.270233154296875, -1.114501953125E-06
0.26824951171875, -1.10321044921875E-06
0.266265869140625, -1.0931396484375E-06
0.2642822265625, -1.082763671875E-06
0.262298583984375, -1.07330322265625E-06
0.26031494140625, -1.06353759765625E-06
0.258331298828125, -1.0540771484375E-06
0.25634765625, -1.04400634765625E-06
0.254364013671875, -1.03546142578125E-06
0.25238037109375, -1.02630615234375E-06
0.250396728515625, -1.01715087890625E-06
0.2484130859375, -1.00799560546875E-06
0.246429443359375, -1.00006103515625E-06
0.24444580078125, -9.918212890625E-07
0.242462158203125, -9.8358154296875E-07
0.240478515625, -9.75341796875E-07
0.238494873046875, -9.6771240234375E-07
0.23651123046875, -9.6038818359375E-07
0.234527587890625, -9.527587890625E-07
0.2325439453125, -9.4512939453125E-07
0.230560302734375, -9.375E-07
0.22857666015625, -9.3048095703125E-07
0.226593017578125, -9.24072265625E-07
0.224609375, -9.173583984375E-07
0.222625732421875, -9.100341796875E-07
0.22064208984375, -9.0423583984375E-07
0.218658447265625, -8.9752197265625E-07
0.2166748046875, -8.9111328125E-07
0.214691162109375, -8.85009765625E-07
0.21270751953125, -8.7921142578125E-07
0.210723876953125, -8.734130859375E-07
0.208740234375, -8.673095703125E-07
0.206756591796875, -8.6151123046875E-07
0.20477294921875, -8.5540771484375E-07
0.202789306640625, -8.502197265625E-07
0.2008056640625, -8.447265625E-07
0.198822021484375, -8.392333984375E-07
0.2008056640625, -8.2489013671875E-07
0.202789306640625, -8.1329345703125E-07
0.20477294921875, -8.0169677734375E-07
0.206756591796875, -7.9132080078125E-07
0.208740234375, -7.8155517578125E-07
0.210723876953125, -7.733154296875E-07
0.21270751953125, -7.635498046875E-07
0.214691162109375, -7.550048828125E-07
0.2166748046875, -7.4615478515625E-07
0.218658447265625, -7.3883056640625E-07
0.22064208984375, -7.31201171875E-07
0.222625732421875, -7.232666015625E-07
0.224609375, -7.159423828125E-07
0.226593017578125, -7.080078125E-07
0.22857666015625, -7.012939453125E-07
0.230560302734375, -6.9366455078125E-07
0.2325439453125, -6.8695068359375E-07
0.234527587890625, -6.7962646484375E-07
0.23651123046875, -6.7291259765625E-07
0.238494873046875, -6.6650390625E-07
0.240478515625, -6.591796875E-07
0.242462158203125, -6.536865234375E-07
0.24444580078125, -6.4666748046875E-07
0.246429443359375, -6.4056396484375E-07
0.2484130859375, -6.341552734375E-07
0.250396728515625, -6.2774658203125E-07
0.25238037109375, -6.2286376953125E-07
0.254364013671875, -6.158447265625E-07
0.25634765625, -6.097412109375E-07
0.258331298828125, -6.0394287109375E-07
0.26031494140625, -5.9906005859375E-07
0.262298583984375, -5.92041015625E-07
0.2642822265625, -5.8624267578125E-07
0.266265869140625, -5.8074951171875E-07
0.26824951171875, -5.7464599609375E-07
0.270233154296875, -5.6915283203125E-07
0.272216796875, -5.6304931640625E-07
0.274200439453125, -5.57861328125E-07
0.27618408203125, -5.511474609375E-07
0.278167724609375, -5.462646484375E-07
0.2801513671875, -5.3955078125E-07
0.282135009765625, -5.3314208984375E-07
0.28411865234375, -5.2764892578125E-07
0.286102294921875, -5.21240234375E-07
0.2880859375, -5.157470703125E-07
0.290069580078125, -5.09033203125E-07
0.29205322265625, -5.0323486328125E-07
0.294036865234375, -4.974365234375E-07
0.2960205078125, -4.9072265625E-07
0.298004150390625, -4.8431396484375E-07
0.29998779296875, -4.7760009765625E-07
##END=$$ End of the data block
