##TITLE=Spectrum
##JCAMP-DX=5.00 $$ chemotion-converter-app (1.1.0)
##DATA TYPE=THERMOGRAVIMETRIC ANALYSIS
##DATA CLASS=XYPOINTS
##ORIGIN=
##OWNER=
##XUNITS=DEGREES CELSIUS
##YUNITS=Weight %
##FIRSTX=29.79
##LASTX=29.73
##MINX=29.72
##MAXX=30.07
##MINY=99.06
##MAXY=99.56
##NPOINTS=1800
##FIRSTY=99.56
##XUNITS=DEGREES CELSIUS
##YUNITS=Weight %
##XYPOINTS=(XY..XY)
29.79, 99.56
29.79, 99.56
29.79, 99.56
29.79, 99.56
29.79, 99.56
29.79, 99.56
29.79, 99.56
29.79, 99.56
29.8, 99.56
29.8, 99.56
29.8, 99.56
29.8, 99.56
29.8, 99.56
29.8, 99.56
29.8, 99.56
29.8, 99.56
29.8, 99.56
29.8, 99.56
29.8, 99.56
29.81, 99.56
29.81, 99.56
29.81, 99.56
29.81, 99.55
29.81, 99.55
29.81, 99.55
29.81, 99.55
29.81, 99.55
29.81, 99.55
29.81, 99.55
29.81, 99.55
29.81, 99.55
29.82, 99.55
29.82, 99.55
29.82, 99.55
29.82, 99.55
29.82, 99.55
29.82, 99.55
29.82, 99.55
29.82, 99.55
29.82, 99.55
29.82, 99.55
29.82, 99.55
29.83, 99.55
29.83, 99.55
29.83, 99.55
29.83, 99.55
29.83, 99.55
29.83, 99.55
29.83, 99.55
29.83, 99.54
29.83, 99.54
29.83, 99.54
29.83, 99.54
29.83, 99.54
29.84, 99.54
29.84, 99.54
29.84, 99.54
29.84, 99.54
29.84, 99.54
29.84, 99.54
29.84, 99.54
29.84, 99.54
29.84, 99.54
29.84, 99.54
29.84, 99.54
29.84, 99.54
29.85, 99.54
29.85, 99.54
29.85, 99.54
29.85, 99.54
29.85, 99.54
29.85, 99.54
29.85, 99.54
29.85, 99.54
29.85, 99.54
29.85, 99.53
29.85, 99.53
29.85, 99.53
29.86, 99.53
29.86, 99.53
29.86, 99.53
29.86, 99.53
29.86, 99.53
29.86, 99.53
29.86, 99.53
29.86, 99.53
29.86, 99.53
29.86, 99.53
29.86, 99.53
29.86, 99.53
29.86, 99.53
29.87, 99.53
29.87, 99.53
29.87, 99.53
29.87, 99.53
29.87, 99.53
29.87, 99.53
29.87, 99.53
29.87, 99.53
29.87, 99.53
29.87, 99.53
29.87, 99.53
29.87, 99.52
29.88, 99.52
29.88, 99.52
29.88, 99.52
29.88, 99.52
29.88, 99.52
29.88, 99.52
29.88, 99.52
29.88, 99.52
29.88, 99.52
29.88, 99.52
29.88, 99.52
29.88, 99.52
29.88, 99.52
29.89, 99.52
29.89, 99.52
29.89, 99.52
29.89, 99.52
29.89, 99.52
29.89, 99.52
29.89, 99.52
29.89, 99.52
29.89, 99.52
29.89, 99.52
29.89, 99.52
29.89, 99.52
29.89, 99.52
29.89, 99.52
29.9, 99.51
29.9, 99.51
29.9, 99.51
29.9, 99.51
29.9, 99.51
29.9, 99.51
29.9, 99.51
29.9, 99.51
29.9, 99.51
29.9, 99.51
29.9, 99.51
29.9, 99.51
29.9, 99.51
29.9, 99.51
29.91, 99.51
29.91, 99.51
29.91, 99.51
29.91, 99.51
29.91, 99.51
29.91, 99.51
29.91, 99.51
29.91, 99.51
29.91, 99.51
29.91, 99.51
29.91, 99.51
29.91, 99.51
29.91, 99.51
29.91, 99.5
29.92, 99.5
29.92, 99.5
29.92, 99.5
29.92, 99.5
29.92, 99.5
29.92, 99.5
29.92, 99.5
29.92, 99.5
29.92, 99.5
29.92, 99.5
29.92, 99.5
29.92, 99.5
29.92, 99.5
29.92, 99.5
29.93, 99.5
29.93, 99.5
29.93, 99.5
29.93, 99.5
29.93, 99.5
29.93, 99.5
29.93, 99.5
29.93, 99.5
29.93, 99.5
29.93, 99.5
29.93, 99.5
29.93, 99.5
29.93, 99.5
29.93, 99.5
29.93, 99.49
29.94, 99.49
29.94, 99.49
29.94, 99.49
29.94, 99.49
29.94, 99.49
29.94, 99.49
29.94, 99.49
29.94, 99.49
29.94, 99.49
29.94, 99.49
29.94, 99.49
29.94, 99.49
29.94, 99.49
29.94, 99.49
29.94, 99.49
29.94, 99.49
29.95, 99.49
29.95, 99.49
29.95, 99.49
29.95, 99.49
29.95, 99.49
29.95, 99.49
29.95, 99.49
29.95, 99.49
29.95, 99.49
29.95, 99.49
29.95, 99.49
29.95, 99.48
29.95, 99.48
29.95, 99.48
29.95, 99.48
29.95, 99.48
29.96, 99.48
29.96, 99.48
29.96, 99.48
29.96, 99.48
29.96, 99.48
29.96, 99.48
29.96, 99.48
29.96, 99.48
29.96, 99.48
29.96, 99.48
29.96, 99.48
29.96, 99.48
29.96, 99.48
29.96, 99.48
29.96, 99.48
29.96, 99.48
29.97, 99.48
29.97, 99.48
29.97, 99.48
29.97, 99.48
29.97, 99.48
29.97, 99.48
29.97, 99.48
29.97, 99.47
29.97, 99.47
29.97, 99.47
29.97, 99.47
29.97, 99.47
29.97, 99.47
29.97, 99.47
29.97, 99.47
29.97, 99.47
29.97, 99.47
29.97, 99.47
29.98, 99.47
29.98, 99.47
29.98, 99.47
29.98, 99.47
29.98, 99.47
29.98, 99.47
29.98, 99.47
29.98, 99.47
29.98, 99.47
29.98, 99.47
29.98, 99.47
29.98, 99.47
29.98, 99.47
29.98, 99.47
29.98, 99.47
29.98, 99.47
29.98, 99.47
29.98, 99.47
29.98, 99.46
29.99, 99.46
29.99, 99.46
29.99, 99.46
29.99, 99.46
29.99, 99.46
29.99, 99.46
29.99, 99.46
29.99, 99.46
29.99, 99.46
29.99, 99.46
29.99, 99.46
29.99, 99.46
29.99, 99.46
29.99, 99.46
29.99, 99.46
29.99, 99.46
29.99, 99.46
29.99, 99.46
29.99, 99.46
30.0, 99.46
30.0, 99.46
30.0, 99.46
30.0, 99.46
30.0, 99.46
30.0, 99.46
30.0, 99.46
30.0, 99.46
30.0, 99.46
30.0, 99.45
30.0, 99.45
30.0, 99.45
30.0, 99.45
30.0, 99.45
30.0, 99.45
30.0, 99.45
30.0, 99.45
30.0, 99.45
30.0, 99.45
30.0, 99.45
30.0, 99.45
30.01, 99.45
30.01, 99.45
30.01, 99.45
30.01, 99.45
30.01, 99.45
30.01, 99.45
30.01, 99.45
30.01, 99.45
30.01, 99.45
30.01, 99.45
30.01, 99.45
30.01, 99.45
30.01, 99.45
30.01, 99.45
30.01, 99.45
30.01, 99.45
30.01, 99.45
30.01, 99.45
30.01, 99.44
30.01, 99.44
30.01, 99.44
30.01, 99.44
30.01, 99.44
30.02, 99.44
30.02, 99.44
30.02, 99.44
30.02, 99.44
30.02, 99.44
30.02, 99.44
30.02, 99.44
30.02, 99.44
30.02, 99.44
30.02, 99.44
30.02, 99.44
30.02, 99.44
30.02, 99.44
30.02, 99.44
30.02, 99.44
30.02, 99.44
30.02, 99.44
30.02, 99.44
30.02, 99.44
30.02, 99.44
30.02, 99.44
30.02, 99.44
30.02, 99.44
30.02, 99.44
30.02, 99.43
30.02, 99.43
30.03, 99.43
30.03, 99.43
30.03, 99.43
30.03, 99.43
30.03, 99.43
30.03, 99.43
30.03, 99.43
30.03, 99.43
30.03, 99.43
30.03, 99.43
30.03, 99.43
30.03, 99.43
30.03, 99.43
30.03, 99.43
30.03, 99.43
30.03, 99.43
30.03, 99.43
30.03, 99.43
30.03, 99.43
30.03, 99.43
30.03, 99.43
30.03, 99.43
30.03, 99.43
30.03, 99.43
30.03, 99.43
30.03, 99.43
30.03, 99.43
30.03, 99.43
30.03, 99.42
30.03, 99.42
30.03, 99.42
30.04, 99.42
30.04, 99.42
30.04, 99.42
30.04, 99.42
30.04, 99.42
30.04, 99.42
30.04, 99.42
30.04, 99.42
30.04, 99.42
30.04, 99.42
30.04, 99.42
30.04, 99.42
30.04, 99.42
30.04, 99.42
30.04, 99.42
30.04, 99.42
30.04, 99.42
30.04, 99.42
30.04, 99.42
30.04, 99.42
30.04, 99.42
30.04, 99.42
30.04, 99.42
30.04, 99.42
30.04, 99.42
30.04, 99.42
30.04, 99.42
30.04, 99.42
30.04, 99.41
30.04, 99.41
30.04, 99.41
30.04, 99.41
30.04, 99.41
30.04, 99.41
30.04, 99.41
30.04, 99.41
30.05, 99.41
30.05, 99.41
30.05, 99.41
30.05, 99.41
30.05, 99.41
30.05, 99.41
30.05, 99.41
30.05, 99.41
30.05, 99.41
30.05, 99.41
30.05, 99.41
30.05, 99.41
30.05, 99.41
30.05, 99.41
30.05, 99.41
30.05, 99.41
30.05, 99.41
30.05, 99.41
30.05, 99.41
30.05, 99.41
30.05, 99.41
30.05, 99.41
30.05, 99.41
30.05, 99.4
30.05, 99.4
30.05, 99.4
30.05, 99.4
30.05, 99.4
30.05, 99.4
30.05, 99.4
30.05, 99.4
30.05, 99.4
30.05, 99.4
30.05, 99.4
30.05, 99.4
30.05, 99.4
30.05, 99.4
30.05, 99.4
30.05, 99.4
30.05, 99.4
30.05, 99.4
30.05, 99.4
30.05, 99.4
30.05, 99.4
30.05, 99.4
30.05, 99.4
30.05, 99.4
30.06, 99.4
30.06, 99.4
30.06, 99.4
30.06, 99.4
30.06, 99.4
30.06, 99.4
30.06, 99.4
30.06, 99.39
30.06, 99.39
30.06, 99.39
30.06, 99.39
30.06, 99.39
30.06, 99.39
30.06, 99.39
30.06, 99.39
30.06, 99.39
30.06, 99.39
30.06, 99.39
30.06, 99.39
30.06, 99.39
30.06, 99.39
30.06, 99.39
30.06, 99.39
30.06, 99.39
30.06, 99.39
30.06, 99.39
30.06, 99.39
30.06, 99.39
30.06, 99.39
30.06, 99.39
30.06, 99.39
30.06, 99.39
30.06, 99.39
30.06, 99.39
30.06, 99.39
30.06, 99.39
30.06, 99.39
30.06, 99.39
30.06, 99.38
30.06, 99.38
30.06, 99.38
30.06, 99.38
30.06, 99.38
30.06, 99.38
30.06, 99.38
30.06, 99.38
30.06, 99.38
30.06, 99.38
30.06, 99.38
30.06, 99.38
30.06, 99.38
30.06, 99.38
30.06, 99.38
30.06, 99.38
30.06, 99.38
30.06, 99.38
30.06, 99.38
30.06, 99.38
30.06, 99.38
30.06, 99.38
30.06, 99.38
30.06, 99.38
30.06, 99.38
30.06, 99.38
30.06, 99.38
30.06, 99.38
30.06, 99.38
30.06, 99.38
30.06, 99.38
30.06, 99.38
30.06, 99.37
30.06, 99.37
30.06, 99.37
30.06, 99.37
30.06, 99.37
30.06, 99.37
30.06, 99.37
30.06, 99.37
30.06, 99.37
30.06, 99.37
30.06, 99.37
30.06, 99.37
30.06, 99.37
30.06, 99.37
30.06, 99.37
30.06, 99.37
30.06, 99.37
30.06, 99.37
30.06, 99.37
30.06, 99.37
30.06, 99.37
30.06, 99.37
30.06, 99.37
30.06, 99.37
30.07, 99.37
30.07, 99.37
30.07, 99.37
30.07, 99.37
30.07, 99.37
30.07, 99.37
30.07, 99.37
30.07, 99.37
30.07, 99.37
30.07, 99.36
30.07, 99.36
30.07, 99.36
30.07, 99.36
30.07, 99.36
30.07, 99.36
30.06, 99.36
30.06, 99.36
30.06, 99.36
30.06, 99.36
30.06, 99.36
30.06, 99.36
30.06, 99.36
30.06, 99.36
30.06, 99.36
30.06, 99.36
30.06, 99.36
30.06, 99.36
30.06, 99.36
30.06, 99.36
30.06, 99.36
30.06, 99.36
30.06, 99.36
30.06, 99.36
30.06, 99.36
30.06, 99.36
30.06, 99.36
30.06, 99.36
30.06, 99.36
30.06, 99.36
30.06, 99.36
30.06, 99.36
30.06, 99.36
30.06, 99.35
30.06, 99.35
30.06, 99.35
30.06, 99.35
30.06, 99.35
30.06, 99.35
30.06, 99.35
30.06, 99.35
30.06, 99.35
30.06, 99.35
30.06, 99.35
30.06, 99.35
30.06, 99.35
30.06, 99.35
30.06, 99.35
30.06, 99.35
30.06, 99.35
30.06, 99.35
30.06, 99.35
30.06, 99.35
30.06, 99.35
30.06, 99.35
30.06, 99.35
30.06, 99.35
30.06, 99.35
30.06, 99.35
30.06, 99.35
30.06, 99.35
30.06, 99.35
30.06, 99.35
30.06, 99.35
30.06, 99.35
30.06, 99.35
30.06, 99.34
30.06, 99.34
30.06, 99.34
30.06, 99.34
30.06, 99.34
30.06, 99.34
30.06, 99.34
30.06, 99.34
30.06, 99.34
30.06, 99.34
30.06, 99.34
30.06, 99.34
30.06, 99.34
30.06, 99.34
30.06, 99.34
30.06, 99.34
30.06, 99.34
30.06, 99.34
30.06, 99.34
30.06, 99.34
30.06, 99.34
30.06, 99.34
30.06, 99.34
30.06, 99.34
30.06, 99.34
30.06, 99.34
30.06, 99.34
30.06, 99.34
30.06, 99.34
30.06, 99.34
30.06, 99.34
30.05, 99.34
30.05, 99.34
30.05, 99.33
30.05, 99.33
30.05, 99.33
30.05, 99.33
30.05, 99.33
30.05, 99.33
30.05, 99.33
30.05, 99.33
30.05, 99.33
30.05, 99.33
30.05, 99.33
30.05, 99.33
30.05, 99.33
30.05, 99.33
30.05, 99.33
30.05, 99.33
30.05, 99.33
30.05, 99.33
30.05, 99.33
30.05, 99.33
30.05, 99.33
30.05, 99.33
30.05, 99.33
30.05, 99.33
30.05, 99.33
30.05, 99.33
30.05, 99.33
30.05, 99.33
30.05, 99.33
30.05, 99.33
30.05, 99.33
30.05, 99.33
30.05, 99.33
30.05, 99.33
30.05, 99.32
30.05, 99.32
30.05, 99.32
30.05, 99.32
30.05, 99.32
30.05, 99.32
30.05, 99.32
30.05, 99.32
30.05, 99.32
30.05, 99.32
30.04, 99.32
30.04, 99.32
30.04, 99.32
30.04, 99.32
30.04, 99.32
30.04, 99.32
30.04, 99.32
30.04, 99.32
30.04, 99.32
30.04, 99.32
30.04, 99.32
30.04, 99.32
30.04, 99.32
30.04, 99.32
30.04, 99.32
30.04, 99.32
30.04, 99.32
30.04, 99.32
30.04, 99.32
30.04, 99.32
30.04, 99.32
30.04, 99.32
30.04, 99.32
30.04, 99.32
30.04, 99.32
30.04, 99.31
30.04, 99.31
30.04, 99.31
30.04, 99.31
30.04, 99.31
30.04, 99.31
30.04, 99.31
30.04, 99.31
30.04, 99.31
30.04, 99.31
30.03, 99.31
30.03, 99.31
30.03, 99.31
30.03, 99.31
30.03, 99.31
30.03, 99.31
30.03, 99.31
30.03, 99.31
30.03, 99.31
30.03, 99.31
30.03, 99.31
30.03, 99.31
30.03, 99.31
30.03, 99.31
30.03, 99.31
30.03, 99.31
30.03, 99.31
30.03, 99.31
30.03, 99.31
30.03, 99.31
30.03, 99.31
30.03, 99.31
30.03, 99.31
30.03, 99.31
30.03, 99.31
30.03, 99.3
30.03, 99.3
30.03, 99.3
30.03, 99.3
30.03, 99.3
30.02, 99.3
30.02, 99.3
30.02, 99.3
30.02, 99.3
30.02, 99.3
30.02, 99.3
30.02, 99.3
30.02, 99.3
30.02, 99.3
30.02, 99.3
30.02, 99.3
30.02, 99.3
30.02, 99.3
30.02, 99.3
30.02, 99.3
30.02, 99.3
30.02, 99.3
30.02, 99.3
30.02, 99.3
30.02, 99.3
30.02, 99.3
30.02, 99.3
30.02, 99.3
30.02, 99.3
30.02, 99.3
30.01, 99.3
30.01, 99.3
30.01, 99.3
30.01, 99.3
30.01, 99.3
30.01, 99.29
30.01, 99.29
30.01, 99.29
30.01, 99.29
30.01, 99.29
30.01, 99.29
30.01, 99.29
30.01, 99.29
30.01, 99.29
30.01, 99.29
30.01, 99.29
30.01, 99.29
30.01, 99.29
30.01, 99.29
30.01, 99.29
30.01, 99.29
30.01, 99.29
30.01, 99.29
30.01, 99.29
30.0, 99.29
30.0, 99.29
30.0, 99.29
30.0, 99.29
30.0, 99.29
30.0, 99.29
30.0, 99.29
30.0, 99.29
30.0, 99.29
30.0, 99.29
30.0, 99.29
30.0, 99.29
30.0, 99.29
30.0, 99.29
30.0, 99.29
30.0, 99.29
30.0, 99.29
30.0, 99.28
30.0, 99.28
30.0, 99.28
30.0, 99.28
29.99, 99.28
29.99, 99.28
29.99, 99.28
29.99, 99.28
29.99, 99.28
29.99, 99.28
29.99, 99.28
29.99, 99.28
29.99, 99.28
29.99, 99.28
29.99, 99.28
29.99, 99.28
29.99, 99.28
29.99, 99.28
29.99, 99.28
29.99, 99.28
29.99, 99.28
29.99, 99.28
29.99, 99.28
29.99, 99.28
29.98, 99.28
29.98, 99.28
29.98, 99.28
29.98, 99.28
29.98, 99.28
29.98, 99.28
29.98, 99.28
29.98, 99.28
29.98, 99.28
29.98, 99.28
29.98, 99.28
29.98, 99.28
29.98, 99.28
29.98, 99.27
29.98, 99.27
29.98, 99.27
29.98, 99.27
29.98, 99.27
29.98, 99.27
29.97, 99.27
29.97, 99.27
29.97, 99.27
29.97, 99.27
29.97, 99.27
29.97, 99.27
29.97, 99.27
29.97, 99.27
29.97, 99.27
29.97, 99.27
29.97, 99.27
29.97, 99.27
29.97, 99.27
29.97, 99.27
29.97, 99.27
29.97, 99.27
29.97, 99.27
29.96, 99.27
29.96, 99.27
29.96, 99.27
29.96, 99.27
29.96, 99.27
29.96, 99.27
29.96, 99.27
29.96, 99.27
29.96, 99.27
29.96, 99.27
29.96, 99.27
29.96, 99.27
29.96, 99.27
29.96, 99.27
29.96, 99.26
29.96, 99.26
29.96, 99.26
29.95, 99.26
29.95, 99.26
29.95, 99.26
29.95, 99.26
29.95, 99.26
29.95, 99.26
29.95, 99.26
29.95, 99.26
29.95, 99.26
29.95, 99.26
29.95, 99.26
29.95, 99.26
29.95, 99.26
29.95, 99.26
29.95, 99.26
29.95, 99.26
29.94, 99.26
29.94, 99.26
29.94, 99.26
29.94, 99.26
29.94, 99.26
29.94, 99.26
29.94, 99.26
29.94, 99.26
29.94, 99.26
29.94, 99.26
29.94, 99.26
29.94, 99.26
29.94, 99.26
29.94, 99.26
29.94, 99.26
29.94, 99.26
29.93, 99.26
29.93, 99.26
29.93, 99.25
29.93, 99.25
29.93, 99.25
29.93, 99.25
29.93, 99.25
29.93, 99.25
29.93, 99.25
29.93, 99.25
29.93, 99.25
29.93, 99.25
29.93, 99.25
29.93, 99.25
29.93, 99.25
29.92, 99.25
29.92, 99.25
29.92, 99.25
29.92, 99.25
29.92, 99.25
29.92, 99.25
29.92, 99.25
29.92, 99.25
29.92, 99.25
29.92, 99.25
29.92, 99.25
29.92, 99.25
29.92, 99.25
29.92, 99.25
29.92, 99.25
29.91, 99.25
29.91, 99.25
29.91, 99.25
29.91, 99.25
29.91, 99.25
29.91, 99.25
29.91, 99.25
29.91, 99.25
29.91, 99.25
29.91, 99.25
29.91, 99.24
29.91, 99.24
29.91, 99.24
29.91, 99.24
29.91, 99.24
29.9, 99.24
29.9, 99.24
29.9, 99.24
29.9, 99.24
29.9, 99.24
29.9, 99.24
29.9, 99.24
29.9, 99.24
29.9, 99.24
29.9, 99.24
29.9, 99.24
29.9, 99.24
29.9, 99.24
29.9, 99.24
29.9, 99.24
29.89, 99.24
29.89, 99.24
29.89, 99.24
29.89, 99.24
29.89, 99.24
29.89, 99.24
29.89, 99.24
29.89, 99.24
29.89, 99.24
29.89, 99.24
29.89, 99.24
29.89, 99.24
29.89, 99.24
29.89, 99.24
29.88, 99.24
29.88, 99.24
29.88, 99.24
29.88, 99.24
29.88, 99.23
29.88, 99.23
29.88, 99.23
29.88, 99.23
29.88, 99.23
29.88, 99.23
29.88, 99.23
29.88, 99.23
29.88, 99.23
29.88, 99.23
29.87, 99.23
29.87, 99.23
29.87, 99.23
29.87, 99.23
29.87, 99.23
29.87, 99.23
29.87, 99.23
29.87, 99.23
29.87, 99.23
29.87, 99.23
29.87, 99.23
29.87, 99.23
29.87, 99.23
29.87, 99.23
29.86, 99.23
29.86, 99.23
29.86, 99.23
29.86, 99.23
29.86, 99.23
29.86, 99.23
29.86, 99.23
29.86, 99.23
29.86, 99.23
29.86, 99.23
29.86, 99.23
29.86, 99.23
29.86, 99.23
29.86, 99.23
29.85, 99.23
29.85, 99.23
29.85, 99.22
29.85, 99.22
29.85, 99.22
29.85, 99.22
29.85, 99.22
29.85, 99.22
29.85, 99.22
29.85, 99.22
29.85, 99.22
29.85, 99.22
29.85, 99.22
29.85, 99.22
29.84, 99.22
29.84, 99.22
29.84, 99.22
29.84, 99.22
29.84, 99.22
29.84, 99.22
29.84, 99.22
29.84, 99.22
29.84, 99.22
29.84, 99.22
29.84, 99.22
29.84, 99.22
29.84, 99.22
29.84, 99.22
29.84, 99.22
29.84, 99.22
29.83, 99.22
29.83, 99.22
29.83, 99.22
29.83, 99.22
29.83, 99.22
29.83, 99.22
29.83, 99.22
29.83, 99.22
29.83, 99.22
29.83, 99.22
29.83, 99.22
29.83, 99.21
29.83, 99.21
29.83, 99.21
29.83, 99.21
29.83, 99.21
29.82, 99.21
29.82, 99.21
29.82, 99.21
29.82, 99.21
29.82, 99.21
29.82, 99.21
29.82, 99.21
29.82, 99.21
29.82, 99.21
29.82, 99.21
29.82, 99.21
29.82, 99.21
29.82, 99.21
29.82, 99.21
29.82, 99.21
29.82, 99.21
29.82, 99.21
29.81, 99.21
29.81, 99.21
29.81, 99.21
29.81, 99.21
29.81, 99.21
29.81, 99.21
29.81, 99.21
29.81, 99.21
29.81, 99.21
29.81, 99.21
29.81, 99.21
29.81, 99.21
29.81, 99.21
29.81, 99.21
29.81, 99.21
29.81, 99.21
29.81, 99.21
29.81, 99.21
29.81, 99.2
29.8, 99.2
29.8, 99.2
29.8, 99.2
29.8, 99.2
29.8, 99.2
29.8, 99.2
29.8, 99.2
29.8, 99.2
29.8, 99.2
29.8, 99.2
29.8, 99.2
29.8, 99.2
29.8, 99.2
29.8, 99.2
29.8, 99.2
29.8, 99.2
29.8, 99.2
29.8, 99.2
29.8, 99.2
29.8, 99.2
29.79, 99.2
29.79, 99.2
29.79, 99.2
29.79, 99.2
29.79, 99.2
29.79, 99.2
29.79, 99.2
29.79, 99.2
29.79, 99.2
29.79, 99.2
29.79, 99.2
29.79, 99.2
29.79, 99.2
29.79, 99.2
29.79, 99.2
29.79, 99.2
29.79, 99.2
29.79, 99.2
29.79, 99.2
29.79, 99.2
29.78, 99.19
29.78, 99.19
29.78, 99.19
29.78, 99.19
29.78, 99.19
29.78, 99.19
29.78, 99.19
29.78, 99.19
29.78, 99.19
29.78, 99.19
29.78, 99.19
29.78, 99.19
29.78, 99.19
29.78, 99.19
29.78, 99.19
29.78, 99.19
29.78, 99.19
29.78, 99.19
29.78, 99.19
29.78, 99.19
29.78, 99.19
29.78, 99.19
29.77, 99.19
29.77, 99.19
29.77, 99.19
29.77, 99.19
29.77, 99.19
29.77, 99.19
29.77, 99.19
29.77, 99.19
29.77, 99.19
29.77, 99.19
29.77, 99.19
29.77, 99.19
29.77, 99.19
29.77, 99.19
29.77, 99.19
29.77, 99.19
29.77, 99.19
29.77, 99.19
29.77, 99.19
29.77, 99.18
29.77, 99.18
29.77, 99.18
29.77, 99.18
29.77, 99.18
29.76, 99.18
29.76, 99.18
29.76, 99.18
29.76, 99.18
29.76, 99.18
29.76, 99.18
29.76, 99.18
29.76, 99.18
29.76, 99.18
29.76, 99.18
29.76, 99.18
29.76, 99.18
29.76, 99.18
29.76, 99.18
29.76, 99.18
29.76, 99.18
29.76, 99.18
29.76, 99.18
29.76, 99.18
29.76, 99.18
29.76, 99.18
29.76, 99.18
29.76, 99.18
29.76, 99.18
29.76, 99.18
29.76, 99.18
29.76, 99.18
29.76, 99.18
29.76, 99.18
29.76, 99.18
29.76, 99.18
29.75, 99.18
29.75, 99.18
29.75, 99.18
29.75, 99.18
29.75, 99.18
29.75, 99.18
29.75, 99.18
29.75, 99.17
29.75, 99.17
29.75, 99.17
29.75, 99.17
29.75, 99.17
29.75, 99.17
29.75, 99.17
29.75, 99.17
29.75, 99.17
29.75, 99.17
29.75, 99.17
29.75, 99.17
29.75, 99.17
29.75, 99.17
29.75, 99.17
29.75, 99.17
29.75, 99.17
29.75, 99.17
29.75, 99.17
29.75, 99.17
29.75, 99.17
29.75, 99.17
29.75, 99.17
29.75, 99.17
29.75, 99.17
29.75, 99.17
29.75, 99.17
29.75, 99.17
29.75, 99.17
29.75, 99.17
29.75, 99.17
29.74, 99.17
29.74, 99.17
29.74, 99.17
29.74, 99.17
29.74, 99.17
29.74, 99.17
29.74, 99.17
29.74, 99.17
29.74, 99.17
29.74, 99.17
29.74, 99.17
29.74, 99.17
29.74, 99.16
29.74, 99.16
29.74, 99.16
29.74, 99.16
29.74, 99.16
29.74, 99.16
29.74, 99.16
29.74, 99.16
29.74, 99.16
29.74, 99.16
29.74, 99.16
29.74, 99.16
29.74, 99.16
29.74, 99.16
29.74, 99.16
29.74, 99.16
29.74, 99.16
29.74, 99.16
29.74, 99.16
29.74, 99.16
29.74, 99.16
29.74, 99.16
29.74, 99.16
29.74, 99.16
29.74, 99.16
29.74, 99.16
29.74, 99.16
29.74, 99.16
29.74, 99.16
29.74, 99.16
29.74, 99.16
29.74, 99.16
29.74, 99.16
29.74, 99.16
29.74, 99.16
29.74, 99.16
29.74, 99.16
29.73, 99.16
29.73, 99.16
29.73, 99.16
29.73, 99.16
29.73, 99.16
29.73, 99.16
29.73, 99.16
29.73, 99.15
29.73, 99.15
29.73, 99.15
29.73, 99.15
29.73, 99.15
29.73, 99.15
29.73, 99.15
29.73, 99.15
29.73, 99.15
29.73, 99.15
29.73, 99.15
29.73, 99.15
29.73, 99.15
29.73, 99.15
29.73, 99.15
29.73, 99.15
29.73, 99.15
29.73, 99.15
29.73, 99.15
29.73, 99.15
29.73, 99.15
29.73, 99.15
29.73, 99.15
29.73, 99.15
29.73, 99.15
29.73, 99.15
29.73, 99.15
29.73, 99.15
29.73, 99.15
29.73, 99.15
29.73, 99.15
29.73, 99.15
29.73, 99.15
29.73, 99.15
29.73, 99.15
29.73, 99.15
29.73, 99.15
29.73, 99.15
29.73, 99.15
29.73, 99.15
29.73, 99.15
29.73, 99.15
29.73, 99.15
29.73, 99.15
29.73, 99.14
29.73, 99.14
29.73, 99.14
29.73, 99.14
29.73, 99.14
29.73, 99.14
29.73, 99.14
29.73, 99.14
29.73, 99.14
29.73, 99.14
29.73, 99.14
29.73, 99.14
29.73, 99.14
29.73, 99.14
29.73, 99.14
29.73, 99.14
29.73, 99.14
29.73, 99.14
29.73, 99.14
29.73, 99.14
29.73, 99.14
29.73, 99.14
29.73, 99.14
29.73, 99.14
29.73, 99.14
29.73, 99.14
29.73, 99.14
29.73, 99.14
29.73, 99.14
29.72, 99.14
29.72, 99.14
29.72, 99.14
29.72, 99.14
29.72, 99.14
29.72, 99.14
29.72, 99.14
29.72, 99.14
29.72, 99.14
29.72, 99.14
29.72, 99.14
29.72, 99.14
29.72, 99.14
29.72, 99.14
29.72, 99.14
29.72, 99.14
29.72, 99.13
29.72, 99.13
29.72, 99.13
29.72, 99.13
29.72, 99.13
29.72, 99.13
29.72, 99.13
29.72, 99.13
29.72, 99.13
29.72, 99.13
29.72, 99.13
29.72, 99.13
29.72, 99.13
29.72, 99.13
29.72, 99.13
29.72, 99.13
29.72, 99.13
29.72, 99.13
29.72, 99.13
29.72, 99.13
29.72, 99.13
29.72, 99.13
29.72, 99.13
29.72, 99.13
29.72, 99.13
29.72, 99.13
29.72, 99.13
29.72, 99.13
29.72, 99.13
29.72, 99.13
29.72, 99.13
29.72, 99.13
29.72, 99.13
29.72, 99.13
29.72, 99.13
29.72, 99.13
29.72, 99.13
29.72, 99.13
29.72, 99.13
29.72, 99.13
29.72, 99.13
29.72, 99.13
29.72, 99.13
29.72, 99.13
29.72, 99.13
29.72, 99.12
29.72, 99.12
29.72, 99.12
29.72, 99.12
29.72, 99.12
29.72, 99.12
29.72, 99.12
29.72, 99.12
29.72, 99.12
29.72, 99.12
29.72, 99.12
29.72, 99.12
29.72, 99.12
29.72, 99.12
29.72, 99.12
29.72, 99.12
29.72, 99.12
29.72, 99.12
29.72, 99.12
29.72, 99.12
29.72, 99.12
29.72, 99.12
29.72, 99.12
29.72, 99.12
29.72, 99.12
29.72, 99.12
29.72, 99.12
29.72, 99.12
29.72, 99.12
29.72, 99.12
29.72, 99.12
29.72, 99.12
29.72, 99.12
29.72, 99.12
29.72, 99.12
29.72, 99.12
29.72, 99.12
29.72, 99.12
29.72, 99.12
29.72, 99.12
29.72, 99.12
29.72, 99.12
29.72, 99.12
29.72, 99.12
29.72, 99.12
29.72, 99.12
29.72, 99.11
29.72, 99.11
29.72, 99.11
29.72, 99.11
29.72, 99.11
29.72, 99.11
29.72, 99.11
29.72, 99.11
29.72, 99.11
29.72, 99.11
29.72, 99.11
29.72, 99.11
29.72, 99.11
29.72, 99.11
29.72, 99.11
29.72, 99.11
29.72, 99.11
29.72, 99.11
29.72, 99.11
29.72, 99.11
29.72, 99.11
29.72, 99.11
29.72, 99.11
29.72, 99.11
29.72, 99.11
29.72, 99.11
29.72, 99.11
29.72, 99.11
29.72, 99.11
29.72, 99.11
29.72, 99.11
29.72, 99.11
29.72, 99.11
29.72, 99.11
29.72, 99.11
29.72, 99.11
29.72, 99.11
29.72, 99.11
29.72, 99.11
29.72, 99.11
29.72, 99.11
29.72, 99.11
29.72, 99.11
29.72, 99.11
29.72, 99.11
29.72, 99.11
29.72, 99.1
29.72, 99.1
29.72, 99.1
29.72, 99.1
29.72, 99.1
29.72, 99.1
29.72, 99.1
29.72, 99.1
29.72, 99.1
29.72, 99.1
29.72, 99.1
29.72, 99.1
29.72, 99.1
29.72, 99.1
29.72, 99.1
29.72, 99.1
29.72, 99.1
29.72, 99.1
29.72, 99.1
29.72, 99.1
29.72, 99.1
29.72, 99.1
29.72, 99.1
29.72, 99.1
29.72, 99.1
29.72, 99.1
29.72, 99.1
29.72, 99.1
29.72, 99.1
29.72, 99.1
29.72, 99.1
29.72, 99.1
29.72, 99.1
29.72, 99.1
29.72, 99.1
29.72, 99.1
29.72, 99.1
29.72, 99.1
29.72, 99.1
29.72, 99.1
29.72, 99.1
29.72, 99.1
29.72, 99.1
29.72, 99.1
29.72, 99.1
29.72, 99.1
29.72, 99.1
29.72, 99.1
29.72, 99.09
29.72, 99.09
29.72, 99.09
29.72, 99.09
29.72, 99.09
29.72, 99.09
29.72, 99.09
29.72, 99.09
29.72, 99.09
29.72, 99.09
29.72, 99.09
29.72, 99.09
29.72, 99.09
29.72, 99.09
29.72, 99.09
29.72, 99.09
29.72, 99.09
29.72, 99.09
29.72, 99.09
29.72, 99.09
29.72, 99.09
29.72, 99.09
29.72, 99.09
29.72, 99.09
29.72, 99.09
29.72, 99.09
29.72, 99.09
29.72, 99.09
29.72, 99.09
29.72, 99.09
29.72, 99.09
29.72, 99.09
29.72, 99.09
29.72, 99.09
29.72, 99.09
29.72, 99.09
29.72, 99.09
29.72, 99.09
29.72, 99.09
29.72, 99.09
29.72, 99.09
29.72, 99.09
29.72, 99.09
29.72, 99.09
29.72, 99.09
29.72, 99.09
29.72, 99.09
29.72, 99.09
29.72, 99.08
29.72, 99.08
29.72, 99.08
29.72, 99.08
29.72, 99.08
29.72, 99.08
29.72, 99.08
29.72, 99.08
29.72, 99.08
29.72, 99.08
29.72, 99.08
29.72, 99.08
29.72, 99.08
29.72, 99.08
29.72, 99.08
29.72, 99.08
29.72, 99.08
29.72, 99.08
29.72, 99.08
29.72, 99.08
29.73, 99.08
29.73, 99.08
29.73, 99.08
29.73, 99.08
29.73, 99.08
29.73, 99.08
29.73, 99.08
29.73, 99.08
29.73, 99.08
29.73, 99.08
29.73, 99.08
29.73, 99.08
29.73, 99.08
29.73, 99.08
29.73, 99.08
29.73, 99.08
29.73, 99.08
29.73, 99.08
29.73, 99.08
29.73, 99.08
29.73, 99.08
29.73, 99.08
29.73, 99.08
29.73, 99.08
29.73, 99.08
29.73, 99.08
29.73, 99.08
29.73, 99.08
29.73, 99.08
29.73, 99.07
29.73, 99.07
29.73, 99.07
29.73, 99.07
29.73, 99.07
29.73, 99.07
29.73, 99.07
29.73, 99.07
29.73, 99.07
29.73, 99.07
29.73, 99.07
29.73, 99.07
29.73, 99.07
29.73, 99.07
29.73, 99.07
29.73, 99.07
29.73, 99.07
29.73, 99.07
29.73, 99.07
29.73, 99.07
29.73, 99.07
29.73, 99.07
29.73, 99.07
29.73, 99.07
29.73, 99.07
29.73, 99.07
29.73, 99.07
29.73, 99.07
29.73, 99.07
29.73, 99.07
29.73, 99.07
29.73, 99.07
29.73, 99.07
29.73, 99.07
29.73, 99.07
29.73, 99.07
29.73, 99.07
29.73, 99.07
29.73, 99.07
29.73, 99.07
29.73, 99.07
29.73, 99.07
29.73, 99.07
29.73, 99.07
29.73, 99.07
29.73, 99.07
29.73, 99.07
29.73, 99.07
29.73, 99.07
29.73, 99.06
29.73, 99.06
29.73, 99.06
29.73, 99.06
29.73, 99.06
29.73, 99.06
29.73, 99.06
29.73, 99.06
29.73, 99.06
29.73, 99.06
##END=$$ End of the data block
