##TITLE=Spectrum
##JCAMP-DX=5.00 $$ chemotion-converter-app (1.7.0)
##DATA TYPE=CYCLIC VOLTAMMETRY
##DATA CLASS=XYPOINTS
##ORIGIN=
##OWNER=
##XUNITS=Voltage in V
##YUNITS=Current in A
##DATE=18.9.2023
##SCAN_RATE=0.0999998
##STEP_SIZE=0.005
##CYCLES=3
##SOFTWARE_VERSION=7.8.6
##SOFTWARE=Framework
##TIME=12:35:02
##VOLTAGE_START=3.00000E-001
##VOLTAGE_LIMIT_ONE=-7.00000E-001
##VOLTAGE_LIMIT_TWO=3.00000E-001
##VOLTAGE_LIMIT_END=3.00000E-001
##SERIAL=IFC1010-30147
##INSTRUMENT=Potentiostat
##FIRSTX=2.99932E-001
##LASTX=2.99929E-001
##MINX=-0.700259
##MAXX=0.299932
##MINY=-2.20613e-06
##MAXY=3.87299e-06
##NPOINTS=401
##FIRSTY=2.96077E-006
##XUNITS=Voltage in V
##YUNITS=Current in A
##XYPOINTS=(XY..XY)
2.99932E-001, 2.96077E-006
2.94944E-001, 2.96498E-006
2.89938E-001, 2.93802E-006
2.84939E-001, 2.90726E-006
2.79915E-001, 2.87825E-006
2.74943E-001, 2.85020E-006
2.69947E-001, 2.82308E-006
2.64933E-001, 2.79688E-006
2.59941E-001, 2.77170E-006
2.54936E-001, 2.74687E-006
2.49944E-001, 2.72348E-006
2.44948E-001, 2.69971E-006
2.39942E-001, 2.67730E-006
2.34937E-001, 2.65454E-006
2.29947E-001, 2.63291E-006
2.24928E-001, 2.61089E-006
2.19947E-001, 2.58992E-006
2.14939E-001, 2.56796E-006
2.09928E-001, 2.54666E-006
2.04947E-001, 2.52496E-006
1.99944E-001, 2.50329E-006
1.94961E-001, 2.48059E-006
1.89945E-001, 2.45766E-006
1.84900E-001, 2.43339E-006
1.79914E-001, 2.40885E-006
1.74911E-001, 2.38206E-006
1.69905E-001, 2.35396E-006
1.64906E-001, 2.32287E-006
1.59926E-001, 2.28984E-006
1.54927E-001, 2.25298E-006
1.49908E-001, 2.21274E-006
1.44926E-001, 2.16718E-006
1.39919E-001, 2.11670E-006
1.34921E-001, 2.05910E-006
1.29925E-001, 1.99486E-006
1.24908E-001, 1.92210E-006
1.19906E-001, 1.83995E-006
1.14924E-001, 1.74721E-006
1.09917E-001, 1.64319E-006
1.04913E-001, 1.52738E-006
9.98999E-002, 1.39951E-006
9.49007E-002, 1.25934E-006
8.99229E-002, 1.10785E-006
8.49138E-002, 9.45758E-007
7.99157E-002, 7.76936E-007
7.49092E-002, 6.00340E-007
6.98743E-002, 4.20810E-007
6.48725E-002, 2.49024E-007
5.98582E-002, 8.45890E-008
5.48812E-002, -6.85322E-008
4.98601E-002, -2.06742E-007
4.48616E-002, -3.26329E-007
3.98762E-002, -4.26307E-007
3.48678E-002, -5.04995E-007
2.98775E-002, -5.62702E-007
2.48992E-002, -6.01011E-007
1.98779E-002, -6.20704E-007
1.48956E-002, -6.25204E-007
9.88963E-003, -6.16427E-007
4.87715E-003, -5.97125E-007
-8.41357E-005, -5.68824E-007
-5.11063E-003, -5.35513E-007
-1.00901E-002, -4.97880E-007
-1.51046E-002, -4.57821E-007
-2.00961E-002, -4.16590E-007
-2.51029E-002, -3.75196E-007
-3.01187E-002, -3.34178E-007
-3.50941E-002, -2.94662E-007
-4.00983E-002, -2.56205E-007
-4.51600E-002, -2.20363E-007
-5.01534E-002, -1.85455E-007
-5.51543E-002, -1.52966E-007
-6.01477E-002, -1.22253E-007
-6.51681E-002, -9.39224E-008
-7.01477E-002, -6.72404E-008
-7.51513E-002, -4.27689E-008
-8.01578E-002, -1.95699E-008
-8.51458E-002, 1.44406E-009
-9.01543E-002, 2.11294E-008
-9.51464E-002, 3.89369E-008
-1.00142E-001, 5.58899E-008
-1.05164E-001, 7.08092E-008
-1.10162E-001, 8.50420E-008
-1.15143E-001, 9.74812E-008
-1.20147E-001, 1.09317E-007
-1.25144E-001, 1.19563E-007
-1.30153E-001, 1.29362E-007
-1.35149E-001, 1.37916E-007
-1.40131E-001, 1.46705E-007
-1.45143E-001, 1.54713E-007
-1.50150E-001, 1.63306E-007
-1.55147E-001, 1.71124E-007
-1.60188E-001, 1.79465E-007
-1.65179E-001, 1.86981E-007
-1.70187E-001, 1.94942E-007
-1.75197E-001, 2.01827E-007
-1.80200E-001, 2.09176E-007
-1.85171E-001, 2.15428E-007
-1.90183E-001, 2.22005E-007
-1.95186E-001, 2.27404E-007
-2.00182E-001, 2.32968E-007
-2.05170E-001, 2.37389E-007
-2.10170E-001, 2.41821E-007
-2.15171E-001, 2.44923E-007
-2.20180E-001, 2.47996E-007
-2.25168E-001, 2.49608E-007
-2.30180E-001, 2.50830E-007
-2.35176E-001, 2.50451E-007
-2.40166E-001, 2.49558E-007
-2.45177E-001, 2.46624E-007
-2.50161E-001, 2.42894E-007
-2.55167E-001, 2.36568E-007
-2.60179E-001, 2.28865E-007
-2.65162E-001, 2.18071E-007
-2.70214E-001, 2.04681E-007
-2.75213E-001, 1.87840E-007
-2.80197E-001, 1.67918E-007
-2.85199E-001, 1.43177E-007
-2.90208E-001, 1.13886E-007
-2.95220E-001, 7.84925E-008
-3.00200E-001, 3.71822E-008
-3.05193E-001, -1.16501E-008
-3.10225E-001, -6.82850E-008
-3.15212E-001, -1.34326E-007
-3.20201E-001, -2.09708E-007
-3.25208E-001, -2.95666E-007
-3.30219E-001, -3.91699E-007
-3.35212E-001, -4.99033E-007
-3.40197E-001, -6.16894E-007
-3.45204E-001, -7.44997E-007
-3.50216E-001, -8.80860E-007
-3.55213E-001, -1.02339E-006
-3.60224E-001, -1.16840E-006
-3.65198E-001, -1.31484E-006
-3.70184E-001, -1.45971E-006
-3.75200E-001, -1.59917E-006
-3.80206E-001, -1.72950E-006
-3.85254E-001, -1.85088E-006
-3.90238E-001, -1.95223E-006
-3.95238E-001, -2.03737E-006
-4.00247E-001, -2.10515E-006
-4.05227E-001, -2.15482E-006
-4.10224E-001, -2.18765E-006
-4.15244E-001, -2.20452E-006
-4.20220E-001, -2.20613E-006
-4.25228E-001, -2.19651E-006
-4.30233E-001, -2.17583E-006
-4.35226E-001, -2.14728E-006
-4.40216E-001, -2.11137E-006
-4.45215E-001, -2.07241E-006
-4.50234E-001, -2.02927E-006
-4.55226E-001, -1.98465E-006
-4.60214E-001, -1.93868E-006
-4.65230E-001, -1.89339E-006
-4.70208E-001, -1.84755E-006
-4.75218E-001, -1.80325E-006
-4.80212E-001, -1.75942E-006
-4.85211E-001, -1.71769E-006
-4.90217E-001, -1.67645E-006
-4.95215E-001, -1.63765E-006
-5.00272E-001, -1.59988E-006
-5.05264E-001, -1.56406E-006
-5.10261E-001, -1.52901E-006
-5.15278E-001, -1.49630E-006
-5.20269E-001, -1.46419E-006
-5.25251E-001, -1.43430E-006
-5.30253E-001, -1.40486E-006
-5.35262E-001, -1.37756E-006
-5.40271E-001, -1.35050E-006
-5.45268E-001, -1.32537E-006
-5.50244E-001, -1.30046E-006
-5.55256E-001, -1.27738E-006
-5.60258E-001, -1.25446E-006
-5.65262E-001, -1.23323E-006
-5.70244E-001, -1.21216E-006
-5.75238E-001, -1.19245E-006
-5.80253E-001, -1.17298E-006
-5.85252E-001, -1.15505E-006
-5.90265E-001, -1.13695E-006
-5.95256E-001, -1.11997E-006
-6.00249E-001, -1.10315E-006
-6.05260E-001, -1.08757E-006
-6.10252E-001, -1.07194E-006
-6.15297E-001, -1.05739E-006
-6.20292E-001, -1.04277E-006
-6.25276E-001, -1.02896E-006
-6.30286E-001, -1.01534E-006
-6.35292E-001, -1.00249E-006
-6.40284E-001, -9.89576E-007
-6.45277E-001, -9.77542E-007
-6.50277E-001, -9.65533E-007
-6.55278E-001, -9.54248E-007
-6.60287E-001, -9.42854E-007
-6.65267E-001, -9.32129E-007
-6.70277E-001, -9.21422E-007
-6.75273E-001, -9.11400E-007
-6.80282E-001, -9.01195E-007
-6.85260E-001, -8.91643E-007
-6.90254E-001, -8.81893E-007
-6.95266E-001, -8.73002E-007
-7.00259E-001, -8.63642E-007
-6.95269E-001, -8.43760E-007
-6.90257E-001, -8.27436E-007
-6.85260E-001, -8.13398E-007
-6.80283E-001, -7.99893E-007
-6.75268E-001, -7.88215E-007
-6.70276E-001, -7.76162E-007
-6.65283E-001, -7.65126E-007
-6.60291E-001, -7.54055E-007
-6.55281E-001, -7.43846E-007
-6.50265E-001, -7.33443E-007
-6.45261E-001, -7.23836E-007
-6.40285E-001, -7.14113E-007
-6.35280E-001, -7.05142E-007
-6.30273E-001, -6.95669E-007
-6.25266E-001, -6.87095E-007
-6.20286E-001, -6.77952E-007
-6.15277E-001, -6.69714E-007
-6.10252E-001, -6.60916E-007
-6.05251E-001, -6.52894E-007
-6.00256E-001, -6.44139E-007
-5.95242E-001, -6.36218E-007
-5.90257E-001, -6.27529E-007
-5.85244E-001, -6.19707E-007
-5.80251E-001, -6.11055E-007
-5.75240E-001, -6.03138E-007
-5.70255E-001, -5.94386E-007
-5.65279E-001, -5.86362E-007
-5.60242E-001, -5.77250E-007
-5.55272E-001, -5.69016E-007
-5.50235E-001, -5.59499E-007
-5.45261E-001, -5.50584E-007
-5.40279E-001, -5.40570E-007
-5.35263E-001, -5.30867E-007
-5.30269E-001, -5.19942E-007
-5.25247E-001, -5.09139E-007
-5.20264E-001, -4.97000E-007
-5.15268E-001, -4.84798E-007
-5.10241E-001, -4.71040E-007
-5.05260E-001, -4.56912E-007
-5.00262E-001, -4.41074E-007
-4.95208E-001, -4.23996E-007
-4.90198E-001, -4.05102E-007
-4.85200E-001, -3.84851E-007
-4.80210E-001, -3.62026E-007
-4.75212E-001, -3.36836E-007
-4.70214E-001, -3.08682E-007
-4.65217E-001, -2.77291E-007
-4.60220E-001, -2.41865E-007
-4.55230E-001, -2.02118E-007
-4.50228E-001, -1.56673E-007
-4.45206E-001, -1.05330E-007
-4.40221E-001, -4.72038E-008
-4.35223E-001, 1.84237E-008
-4.30227E-001, 9.30231E-008
-4.25221E-001, 1.77346E-007
-4.20224E-001, 2.71026E-007
-4.15241E-001, 3.74800E-007
-4.10229E-001, 4.89837E-007
-4.05238E-001, 6.14696E-007
-4.00252E-001, 7.48773E-007
-3.95254E-001, 8.90958E-007
-3.90237E-001, 1.03625E-006
-3.85248E-001, 1.18631E-006
-3.80209E-001, 1.34011E-006
-3.75206E-001, 1.48574E-006
-3.70211E-001, 1.62510E-006
-3.65214E-001, 1.75452E-006
-3.60217E-001, 1.86997E-006
-3.55222E-001, 1.96901E-006
-3.50198E-001, 2.05316E-006
-3.45203E-001, 2.11845E-006
-3.40213E-001, 2.16640E-006
-3.35217E-001, 2.19671E-006
-3.30213E-001, 2.21177E-006
-3.25208E-001, 2.21341E-006
-3.20197E-001, 2.20311E-006
-3.15221E-001, 2.18261E-006
-3.10233E-001, 2.15492E-006
-3.05210E-001, 2.12085E-006
-3.00220E-001, 2.08347E-006
-2.95219E-001, 2.04256E-006
-2.90220E-001, 2.00006E-006
-2.85220E-001, 1.95649E-006
-2.80212E-001, 1.91374E-006
-2.75207E-001, 1.87079E-006
-2.70220E-001, 1.82916E-006
-2.65156E-001, 1.78891E-006
-2.60172E-001, 1.75012E-006
-2.55168E-001, 1.71215E-006
-2.50179E-001, 1.67671E-006
-2.45179E-001, 1.64218E-006
-2.40178E-001, 1.61006E-006
-2.35144E-001, 1.57910E-006
-2.30174E-001, 1.54985E-006
-2.25185E-001, 1.52165E-006
-2.20159E-001, 1.49580E-006
-2.15172E-001, 1.47042E-006
-2.10166E-001, 1.44693E-006
-2.05168E-001, 1.42425E-006
-2.00179E-001, 1.40314E-006
-1.95183E-001, 1.38257E-006
-1.90176E-001, 1.36360E-006
-1.85171E-001, 1.34490E-006
-1.80193E-001, 1.32786E-006
-1.75188E-001, 1.31101E-006
-1.70180E-001, 1.29582E-006
-1.65174E-001, 1.28059E-006
-1.60191E-001, 1.26677E-006
-1.55150E-001, 1.25319E-006
-1.50146E-001, 1.24074E-006
-1.45147E-001, 1.22836E-006
-1.40131E-001, 1.21717E-006
-1.35158E-001, 1.20621E-006
-1.30158E-001, 1.19636E-006
-1.25151E-001, 1.18671E-006
-1.20151E-001, 1.17821E-006
-1.15144E-001, 1.17000E-006
-1.10159E-001, 1.16294E-006
-1.05165E-001, 1.15614E-006
-1.00149E-001, 1.15063E-006
-9.51444E-002, 1.14537E-006
-9.01453E-002, 1.14178E-006
-8.51383E-002, 1.13854E-006
-8.01465E-002, 1.13699E-006
-7.51366E-002, 1.13624E-006
-7.01385E-002, 1.13737E-006
-6.51610E-002, 1.13947E-006
-6.01536E-002, 1.14425E-006
-5.51489E-002, 1.15063E-006
-5.01416E-002, 1.16008E-006
-4.51440E-002, 1.17207E-006
-4.01001E-002, 1.18882E-006
-3.50903E-002, 1.20860E-006
-3.01095E-002, 1.23359E-006
-2.51069E-002, 1.26339E-006
-2.01151E-002, 1.29980E-006
-1.51234E-002, 1.34235E-006
-1.00894E-002, 1.39342E-006
-5.10629E-003, 1.45235E-006
-9.33084E-005, 1.52120E-006
4.88265E-003, 1.59975E-006
9.87746E-003, 1.69106E-006
1.48918E-002, 1.79358E-006
1.98934E-002, 1.90973E-006
2.48879E-002, 2.03769E-006
2.98735E-002, 2.17867E-006
3.48675E-002, 2.33002E-006
3.98797E-002, 2.49079E-006
4.48668E-002, 2.65735E-006
4.98739E-002, 2.82621E-006
5.48871E-002, 2.99433E-006
5.98829E-002, 3.15658E-006
6.48712E-002, 3.30827E-006
6.98798E-002, 3.44595E-006
7.49175E-002, 3.57056E-006
7.99036E-002, 3.67018E-006
8.49060E-002, 3.75051E-006
8.99193E-002, 3.80959E-006
9.49027E-002, 3.84880E-006
9.98894E-002, 3.86952E-006
1.04917E-001, 3.87299E-006
1.09912E-001, 3.86251E-006
1.14930E-001, 3.83968E-006
1.19915E-001, 3.80696E-006
1.24926E-001, 3.76608E-006
1.29917E-001, 3.71951E-006
1.34908E-001, 3.66860E-006
1.39911E-001, 3.61540E-006
1.44911E-001, 3.56021E-006
1.49907E-001, 3.50457E-006
1.54931E-001, 3.44853E-006
1.59911E-001, 3.39405E-006
1.64905E-001, 3.34022E-006
1.69916E-001, 3.28831E-006
1.74914E-001, 3.23777E-006
1.79908E-001, 3.18961E-006
1.84898E-001, 3.14284E-006
1.89948E-001, 3.09897E-006
1.94956E-001, 3.05627E-006
1.99948E-001, 3.01604E-006
2.04949E-001, 2.97740E-006
2.09935E-001, 2.94107E-006
2.14948E-001, 2.90599E-006
2.19958E-001, 2.87335E-006
2.24950E-001, 2.84170E-006
2.29955E-001, 2.81195E-006
2.34944E-001, 2.78336E-006
2.39944E-001, 2.75652E-006
2.44944E-001, 2.73022E-006
2.49937E-001, 2.70585E-006
2.54929E-001, 2.68193E-006
2.59937E-001, 2.66005E-006
2.64937E-001, 2.63824E-006
2.69949E-001, 2.61805E-006
2.74929E-001, 2.59827E-006
2.79920E-001, 2.57991E-006
2.84934E-001, 2.56146E-006
2.89940E-001, 2.54467E-006
2.94950E-001, 2.52765E-006
2.99929E-001, 2.51226E-006
##END=$$ End of the data block
