##TITLE=Spectrum
##JCAMP-DX=5.00 $$ chemotion-converter-app (1.1.0)
##DATA TYPE=CYCLIC VOLTAMMETRY
##DATA CLASS=XYPOINTS
##ORIGIN=
##OWNER=
##XUNITS=Voltage in V
##YUNITS=Current in A
##DATE=18.9.2023
##SCAN_RATE=0.0999998
##STEP_SIZE=0.005
##CYCLES=3
##SOFTWARE_VERSION=7.8.6
##SOFTWARE=Framework
##VOLTAGE_LIMIT_END=3,00000E-001
##SERIAL=IFC1010-30147
##FIRSTX=2.94951E-001
##LASTX=2.99927E-001
##MINX=-0.700258
##MAXX=0.299927
##MINY=-2.14662e-06
##MAXY=4.07245e-06
##NPOINTS=400
##FIRSTY=2.64833E-006
##XUNITS=Voltage in V
##YUNITS=Current in A
##XYPOINTS=(XY..XY)
2.94951E-001, 2.64833E-006
2.89940E-001, 2.62484E-006
2.84933E-001, 2.60311E-006
2.79927E-001, 2.58330E-006
2.74929E-001, 2.56427E-006
2.69942E-001, 2.54654E-006
2.64932E-001, 2.52898E-006
2.59937E-001, 2.51265E-006
2.54936E-001, 2.49643E-006
2.49947E-001, 2.48116E-006
2.44946E-001, 2.46567E-006
2.39955E-001, 2.45075E-006
2.34939E-001, 2.43600E-006
2.29956E-001, 2.42152E-006
2.24941E-001, 2.40687E-006
2.19954E-001, 2.39248E-006
2.14951E-001, 2.37793E-006
2.09940E-001, 2.36342E-006
2.04956E-001, 2.34831E-006
1.99957E-001, 2.33295E-006
1.94963E-001, 2.31669E-006
1.89953E-001, 2.29959E-006
1.84900E-001, 2.28151E-006
1.79911E-001, 2.26217E-006
1.74915E-001, 2.24127E-006
1.69913E-001, 2.21842E-006
1.64897E-001, 2.19273E-006
1.59907E-001, 2.16509E-006
1.54930E-001, 2.13338E-006
1.49908E-001, 2.09773E-006
1.44916E-001, 2.05710E-006
1.39903E-001, 2.01109E-006
1.34927E-001, 1.95805E-006
1.29913E-001, 1.89813E-006
1.24915E-001, 1.82884E-006
1.19918E-001, 1.75044E-006
1.14929E-001, 1.66115E-006
1.09927E-001, 1.56053E-006
1.04920E-001, 1.44720E-006
9.99144E-002, 1.32218E-006
9.49156E-002, 1.18442E-006
8.99308E-002, 1.03529E-006
8.49111E-002, 8.74979E-007
7.99242E-002, 7.07743E-007
7.49127E-002, 5.32160E-007
6.98653E-002, 3.53762E-007
6.48790E-002, 1.83805E-007
5.98714E-002, 2.00186E-008
5.48889E-002, -1.32572E-007
4.98609E-002, -2.69451E-007
4.48676E-002, -3.87808E-007
3.98797E-002, -4.86545E-007
3.48803E-002, -5.63693E-007
2.98695E-002, -6.19575E-007
2.48822E-002, -6.55742E-007
1.98762E-002, -6.73090E-007
1.48833E-002, -6.75238E-007
9.88346E-003, -6.63853E-007
4.88282E-003, -6.42225E-007
-7.24613E-005, -6.11474E-007
-5.11363E-003, -5.75702E-007
-1.00834E-002, -5.35400E-007
-1.51261E-002, -4.93183E-007
-2.01146E-002, -4.48903E-007
-2.51115E-002, -4.04947E-007
-3.01023E-002, -3.61210E-007
-3.51028E-002, -3.18623E-007
-4.01021E-002, -2.77402E-007
-4.51358E-002, -2.38483E-007
-5.01384E-002, -2.00643E-007
-5.51511E-002, -1.65265E-007
-6.01516E-002, -1.31710E-007
-6.51525E-002, -1.00275E-007
-7.01348E-002, -7.04871E-008
-7.51337E-002, -4.31088E-008
-8.01516E-002, -1.68514E-008
-8.51364E-002, 7.37064E-009
-9.01362E-002, 3.02259E-008
-9.51506E-002, 5.15173E-008
-1.00139E-001, 7.15341E-008
-1.05158E-001, 9.00337E-008
-1.10156E-001, 1.07620E-007
-1.15138E-001, 1.23602E-007
-1.20133E-001, 1.38953E-007
-1.25137E-001, 1.52899E-007
-1.30154E-001, 1.66134E-007
-1.35151E-001, 1.78248E-007
-1.40141E-001, 1.89941E-007
-1.45136E-001, 2.00176E-007
-1.50143E-001, 2.10277E-007
-1.55145E-001, 2.19155E-007
-1.60201E-001, 2.27815E-007
-1.65190E-001, 2.35554E-007
-1.70173E-001, 2.43663E-007
-1.75214E-001, 2.50663E-007
-1.80202E-001, 2.58246E-007
-1.85176E-001, 2.65051E-007
-1.90190E-001, 2.71893E-007
-1.95177E-001, 2.77848E-007
-2.00191E-001, 2.84071E-007
-2.05162E-001, 2.88952E-007
-2.10172E-001, 2.94271E-007
-2.15170E-001, 2.97955E-007
-2.20186E-001, 3.01881E-007
-2.25191E-001, 3.04101E-007
-2.30179E-001, 3.06408E-007
-2.35170E-001, 3.06657E-007
-2.40162E-001, 3.06685E-007
-2.45179E-001, 3.04353E-007
-2.50186E-001, 3.01321E-007
-2.55178E-001, 2.95597E-007
-2.60185E-001, 2.88572E-007
-2.65152E-001, 2.78369E-007
-2.70202E-001, 2.65753E-007
-2.75213E-001, 2.49321E-007
-2.80208E-001, 2.29965E-007
-2.85191E-001, 2.05691E-007
-2.90221E-001, 1.76759E-007
-2.95224E-001, 1.41582E-007
-3.00217E-001, 1.00325E-007
-3.05203E-001, 5.10930E-008
-3.10224E-001, -5.37169E-009
-3.15211E-001, -7.20520E-008
-3.20195E-001, -1.47730E-007
-3.25211E-001, -2.34730E-007
-3.30201E-001, -3.31355E-007
-3.35223E-001, -4.40201E-007
-3.40210E-001, -5.59441E-007
-3.45195E-001, -6.87962E-007
-3.50203E-001, -8.25526E-007
-3.55205E-001, -9.69263E-007
-3.60212E-001, -1.11487E-006
-3.65212E-001, -1.26356E-006
-3.70194E-001, -1.40935E-006
-3.75202E-001, -1.54895E-006
-3.80192E-001, -1.67883E-006
-3.85258E-001, -1.80009E-006
-3.90229E-001, -1.90034E-006
-3.95238E-001, -1.98536E-006
-4.00259E-001, -2.05256E-006
-4.05235E-001, -2.10108E-006
-4.10222E-001, -2.13145E-006
-4.15250E-001, -2.14659E-006
-4.20220E-001, -2.14662E-006
-4.25229E-001, -2.13440E-006
-4.30244E-001, -2.11235E-006
-4.35229E-001, -2.08088E-006
-4.40224E-001, -2.04393E-006
-4.45211E-001, -2.00228E-006
-4.50237E-001, -1.95787E-006
-4.55235E-001, -1.91154E-006
-4.60229E-001, -1.86403E-006
-4.65223E-001, -1.81649E-006
-4.70208E-001, -1.76923E-006
-4.75219E-001, -1.72344E-006
-4.80208E-001, -1.67838E-006
-4.85221E-001, -1.63516E-006
-4.90206E-001, -1.59277E-006
-4.95214E-001, -1.55265E-006
-5.00271E-001, -1.51373E-006
-5.05267E-001, -1.47687E-006
-5.10248E-001, -1.44051E-006
-5.15280E-001, -1.40675E-006
-5.20279E-001, -1.37352E-006
-5.25253E-001, -1.34251E-006
-5.30256E-001, -1.31177E-006
-5.35265E-001, -1.28341E-006
-5.40269E-001, -1.25508E-006
-5.45260E-001, -1.22905E-006
-5.50250E-001, -1.20326E-006
-5.55266E-001, -1.17936E-006
-5.60258E-001, -1.15539E-006
-5.65257E-001, -1.13325E-006
-5.70253E-001, -1.11120E-006
-5.75240E-001, -1.09073E-006
-5.80252E-001, -1.07015E-006
-5.85245E-001, -1.05115E-006
-5.90267E-001, -1.03206E-006
-5.95241E-001, -1.01449E-006
-6.00253E-001, -9.96767E-007
-6.05251E-001, -9.80416E-007
-6.10245E-001, -9.63599E-007
-6.15288E-001, -9.48399E-007
-6.20291E-001, -9.32841E-007
-6.25270E-001, -9.18530E-007
-6.30267E-001, -9.03925E-007
-6.35277E-001, -8.90501E-007
-6.40286E-001, -8.76918E-007
-6.45273E-001, -8.64243E-007
-6.50269E-001, -8.51200E-007
-6.55280E-001, -8.39273E-007
-6.60289E-001, -8.27150E-007
-6.65272E-001, -8.15808E-007
-6.70276E-001, -8.04204E-007
-6.75252E-001, -7.94037E-007
-6.80268E-001, -7.83225E-007
-6.85244E-001, -7.73170E-007
-6.90236E-001, -7.62898E-007
-6.95266E-001, -7.53400E-007
-7.00258E-001, -7.43613E-007
-6.95254E-001, -7.23552E-007
-6.90253E-001, -7.06956E-007
-6.85247E-001, -6.92398E-007
-6.80280E-001, -6.78775E-007
-6.75263E-001, -6.66158E-007
-6.70270E-001, -6.53823E-007
-6.65257E-001, -6.42456E-007
-6.60285E-001, -6.31101E-007
-6.55270E-001, -6.20490E-007
-6.50273E-001, -6.10055E-007
-6.45279E-001, -6.00060E-007
-6.40260E-001, -5.89908E-007
-6.35288E-001, -5.80676E-007
-6.30271E-001, -5.70905E-007
-6.25275E-001, -5.61915E-007
-6.20287E-001, -5.52632E-007
-6.15294E-001, -5.43883E-007
-6.10233E-001, -5.34660E-007
-6.05254E-001, -5.26376E-007
-6.00250E-001, -5.17337E-007
-5.95251E-001, -5.09064E-007
-5.90262E-001, -5.00200E-007
-5.85255E-001, -4.91987E-007
-5.80259E-001, -4.83145E-007
-5.75240E-001, -4.74884E-007
-5.70243E-001, -4.65648E-007
-5.65279E-001, -4.57324E-007
-5.60266E-001, -4.47916E-007
-5.55265E-001, -4.39140E-007
-5.50231E-001, -4.29224E-007
-5.45261E-001, -4.20004E-007
-5.40267E-001, -4.09538E-007
-5.35269E-001, -3.99563E-007
-5.30264E-001, -3.88256E-007
-5.25261E-001, -3.77069E-007
-5.20269E-001, -3.64528E-007
-5.15280E-001, -3.52061E-007
-5.10245E-001, -3.37818E-007
-5.05284E-001, -3.23552E-007
-5.00279E-001, -3.07106E-007
-4.95223E-001, -2.89938E-007
-4.90213E-001, -2.70709E-007
-4.85201E-001, -2.50237E-007
-4.80207E-001, -2.27053E-007
-4.75230E-001, -2.02086E-007
-4.70213E-001, -1.73660E-007
-4.65219E-001, -1.42508E-007
-4.60224E-001, -1.06947E-007
-4.55237E-001, -6.74336E-008
-4.50220E-001, -2.17895E-008
-4.45218E-001, 2.91971E-008
-4.40216E-001, 8.75721E-008
-4.35232E-001, 1.53053E-007
-4.30227E-001, 2.27984E-007
-4.25233E-001, 3.11864E-007
-4.20236E-001, 4.06076E-007
-4.15238E-001, 5.11024E-007
-4.10218E-001, 6.27173E-007
-4.05240E-001, 7.52286E-007
-4.00249E-001, 8.87665E-007
-3.95235E-001, 1.03148E-006
-3.90236E-001, 1.17812E-006
-3.85246E-001, 1.33000E-006
-3.80196E-001, 1.48624E-006
-3.75193E-001, 1.63495E-006
-3.70201E-001, 1.77640E-006
-3.65210E-001, 1.90740E-006
-3.60215E-001, 2.02606E-006
-3.55212E-001, 2.12845E-006
-3.50204E-001, 2.21426E-006
-3.45198E-001, 2.28190E-006
-3.40197E-001, 2.33150E-006
-3.35219E-001, 2.36390E-006
-3.30202E-001, 2.38019E-006
-3.25210E-001, 2.38199E-006
-3.20203E-001, 2.37239E-006
-3.15213E-001, 2.35244E-006
-3.10222E-001, 2.32513E-006
-3.05208E-001, 2.29062E-006
-3.00204E-001, 2.25313E-006
-2.95224E-001, 2.21165E-006
-2.90214E-001, 2.16921E-006
-2.85210E-001, 2.12521E-006
-2.80199E-001, 2.08172E-006
-2.75209E-001, 2.03821E-006
-2.70214E-001, 1.99610E-006
-2.65154E-001, 1.95510E-006
-2.60175E-001, 1.91578E-006
-2.55166E-001, 1.87734E-006
-2.50178E-001, 1.84135E-006
-2.45157E-001, 1.80632E-006
-2.40163E-001, 1.77358E-006
-2.35166E-001, 1.74199E-006
-2.30169E-001, 1.71246E-006
-2.25182E-001, 1.68374E-006
-2.20175E-001, 1.65733E-006
-2.15168E-001, 1.63166E-006
-2.10178E-001, 1.60762E-006
-2.05173E-001, 1.58447E-006
-2.00185E-001, 1.56301E-006
-1.95182E-001, 1.54203E-006
-1.90171E-001, 1.52289E-006
-1.85170E-001, 1.50373E-006
-1.80205E-001, 1.48646E-006
-1.75176E-001, 1.46934E-006
-1.70186E-001, 1.45364E-006
-1.65181E-001, 1.43812E-006
-1.60188E-001, 1.42401E-006
-1.55158E-001, 1.41009E-006
-1.50141E-001, 1.39728E-006
-1.45141E-001, 1.38453E-006
-1.40127E-001, 1.37335E-006
-1.35159E-001, 1.36177E-006
-1.30157E-001, 1.35170E-006
-1.25148E-001, 1.34183E-006
-1.20154E-001, 1.33319E-006
-1.15139E-001, 1.32461E-006
-1.10168E-001, 1.31725E-006
-1.05161E-001, 1.31006E-006
-1.00145E-001, 1.30452E-006
-9.51557E-002, 1.29901E-006
-9.01463E-002, 1.29504E-006
-8.51406E-002, 1.29167E-006
-8.01531E-002, 1.28967E-006
-7.51510E-002, 1.28875E-006
-7.01453E-002, 1.28963E-006
-6.51644E-002, 1.29166E-006
-6.01499E-002, 1.29618E-006
-5.51553E-002, 1.30230E-006
-5.01528E-002, 1.31135E-006
-4.51540E-002, 1.32314E-006
-4.01006E-002, 1.33952E-006
-3.50950E-002, 1.35909E-006
-3.01040E-002, 1.38425E-006
-2.51017E-002, 1.41421E-006
-2.01236E-002, 1.45076E-006
-1.51248E-002, 1.49416E-006
-1.00996E-002, 1.54568E-006
-5.10763E-003, 1.60568E-006
-8.76380E-005, 1.67563E-006
4.87982E-003, 1.75579E-006
9.89047E-003, 1.84835E-006
1.48921E-002, 1.95298E-006
1.98839E-002, 2.07059E-006
2.48949E-002, 2.20067E-006
2.98994E-002, 2.34349E-006
3.48738E-002, 2.49779E-006
3.98812E-002, 2.66101E-006
4.48773E-002, 2.82974E-006
4.98636E-002, 3.00183E-006
5.48714E-002, 3.17274E-006
5.98677E-002, 3.33816E-006
6.48752E-002, 3.49330E-006
6.98889E-002, 3.63372E-006
7.49153E-002, 3.76178E-006
7.99123E-002, 3.86394E-006
8.49111E-002, 3.94591E-006
8.99270E-002, 4.00685E-006
9.49151E-002, 4.04711E-006
9.98985E-002, 4.06855E-006
1.04924E-001, 4.07245E-006
1.09908E-001, 4.06197E-006
1.14916E-001, 4.03870E-006
1.19906E-001, 4.00501E-006
1.24909E-001, 3.96288E-006
1.29917E-001, 3.91539E-006
1.34927E-001, 3.86296E-006
1.39907E-001, 3.80794E-006
1.44921E-001, 3.75091E-006
1.49911E-001, 3.69353E-006
1.54923E-001, 3.63584E-006
1.59926E-001, 3.57914E-006
1.64906E-001, 3.52341E-006
1.69920E-001, 3.46997E-006
1.74920E-001, 3.41742E-006
1.79913E-001, 3.36759E-006
1.84904E-001, 3.31946E-006
1.89958E-001, 3.27419E-006
1.94968E-001, 3.22999E-006
1.99951E-001, 3.18877E-006
2.04973E-001, 3.14875E-006
2.09930E-001, 3.11114E-006
2.14933E-001, 3.07501E-006
2.19944E-001, 3.04114E-006
2.24939E-001, 3.00830E-006
2.29949E-001, 2.97765E-006
2.34917E-001, 2.94795E-006
2.39940E-001, 2.92012E-006
2.44937E-001, 2.89335E-006
2.49943E-001, 2.86809E-006
2.54917E-001, 2.84355E-006
2.59919E-001, 2.82065E-006
2.64922E-001, 2.79820E-006
2.69938E-001, 2.77720E-006
2.74928E-001, 2.75646E-006
2.79918E-001, 2.73729E-006
2.84936E-001, 2.71822E-006
2.89927E-001, 2.70039E-006
2.94942E-001, 2.68287E-006
2.99927E-001, 2.66659E-006
##END=$$ End of the data block
