##TITLE=Spectrum
##JCAMP-DX=5.00 $$ chemotion-converter-app (1.4.0)
##DATA TYPE=CYCLIC VOLTAMMETRY
##DATA CLASS=XYPOINTS
##ORIGIN=
##OWNER=
##XUNITS=Voltage in V
##YUNITS=Current in A
##DATE=18.9.2023
##SCAN_RATE=0.0999998
##STEP_SIZE=0.005
##CYCLES=3
##SOFTWARE_VERSION=7.8.6
##SOFTWARE=Framework
##VOLTAGE_LIMIT_END=3.00000E-001
##SERIAL=IFC1010-30147
##FIRSTX=2.94952E-001
##LASTX=2.99926E-001
##MINX=-0.700263
##MAXX=0.299926
##MINY=-2.19485e-06
##MAXY=4.06148e-06
##NPOINTS=400
##FIRSTY=2.48270E-006
##XUNITS=Voltage in V
##YUNITS=Current in A
##XYPOINTS=(XY..XY)
2.94952E-001, 2.48270E-006
2.89936E-001, 2.45936E-006
2.84934E-001, 2.43773E-006
2.79915E-001, 2.41851E-006
2.74933E-001, 2.39956E-006
2.69941E-001, 2.38236E-006
2.64939E-001, 2.36502E-006
2.59942E-001, 2.34922E-006
2.54943E-001, 2.33303E-006
2.49950E-001, 2.31834E-006
2.44948E-001, 2.30290E-006
2.39950E-001, 2.28877E-006
2.34937E-001, 2.27401E-006
2.29944E-001, 2.26009E-006
2.24935E-001, 2.24560E-006
2.19941E-001, 2.23185E-006
2.14948E-001, 2.21713E-006
2.09935E-001, 2.20321E-006
2.04950E-001, 2.18829E-006
1.99956E-001, 2.17362E-006
1.94962E-001, 2.15741E-006
1.89961E-001, 2.14117E-006
1.84886E-001, 2.12304E-006
1.79910E-001, 2.10462E-006
1.74907E-001, 2.08379E-006
1.69911E-001, 2.06167E-006
1.64904E-001, 2.03667E-006
1.59920E-001, 2.00934E-006
1.54913E-001, 1.97805E-006
1.49906E-001, 1.94330E-006
1.44919E-001, 1.90354E-006
1.39910E-001, 1.85820E-006
1.34920E-001, 1.80648E-006
1.29919E-001, 1.74734E-006
1.24911E-001, 1.67974E-006
1.19909E-001, 1.60280E-006
1.14931E-001, 1.51542E-006
1.09917E-001, 1.41649E-006
1.04923E-001, 1.30510E-006
9.99159E-002, 1.18155E-006
9.49129E-002, 1.04629E-006
8.99254E-002, 8.99310E-007
8.49201E-002, 7.41607E-007
7.99105E-002, 5.74225E-007
7.49290E-002, 4.03624E-007
6.98770E-002, 2.28206E-007
6.48797E-002, 5.98274E-008
5.98687E-002, -1.01145E-007
5.48812E-002, -2.51905E-007
4.98638E-002, -3.87175E-007
4.48723E-002, -5.04035E-007
3.98760E-002, -6.01490E-007
3.48762E-002, -6.77913E-007
2.98862E-002, -7.33175E-007
2.48972E-002, -7.68329E-007
1.98914E-002, -7.85130E-007
1.48998E-002, -7.86825E-007
9.87863E-003, -7.74748E-007
4.89433E-003, -7.52572E-007
-7.69643E-005, -7.21427E-007
-5.08995E-003, -6.85111E-007
-1.00938E-002, -6.43927E-007
-1.51112E-002, -6.00959E-007
-2.01091E-002, -5.56208E-007
-2.51064E-002, -5.11818E-007
-3.01197E-002, -4.66979E-007
-3.50941E-002, -4.24004E-007
-4.01085E-002, -3.81677E-007
-4.51291E-002, -3.42400E-007
-5.01473E-002, -3.03315E-007
-5.51546E-002, -2.67404E-007
-6.01504E-002, -2.32545E-007
-6.51585E-002, -2.00667E-007
-7.01445E-002, -1.69662E-007
-7.51515E-002, -1.41575E-007
-8.01415E-002, -1.14165E-007
-8.51401E-002, -8.93999E-008
-9.01493E-002, -6.52299E-008
-9.51392E-002, -4.33632E-008
-1.00144E-001, -2.20444E-008
-1.05157E-001, -2.90889E-009
-1.10152E-001, 1.59861E-008
-1.15145E-001, 3.28559E-008
-1.20141E-001, 4.96171E-008
-1.25133E-001, 6.44811E-008
-1.30150E-001, 7.92015E-008
-1.35137E-001, 9.22820E-008
-1.40139E-001, 1.05288E-007
-1.45137E-001, 1.16835E-007
-1.50154E-001, 1.28357E-007
-1.55152E-001, 1.38581E-007
-1.60190E-001, 1.48592E-007
-1.65183E-001, 1.57589E-007
-1.70183E-001, 1.66430E-007
-1.75183E-001, 1.74235E-007
-1.80205E-001, 1.81875E-007
-1.85162E-001, 1.88520E-007
-1.90169E-001, 1.95034E-007
-1.95184E-001, 2.00540E-007
-2.00189E-001, 2.05922E-007
-2.05168E-001, 2.10399E-007
-2.10170E-001, 2.14835E-007
-2.15172E-001, 2.18259E-007
-2.20169E-001, 2.21564E-007
-2.25180E-001, 2.23727E-007
-2.30159E-001, 2.25499E-007
-2.35168E-001, 2.25950E-007
-2.40161E-001, 2.25710E-007
-2.45172E-001, 2.23707E-007
-2.50172E-001, 2.20547E-007
-2.55155E-001, 2.15363E-007
-2.60175E-001, 2.08473E-007
-2.65146E-001, 1.98827E-007
-2.70202E-001, 1.86380E-007
-2.75201E-001, 1.70710E-007
-2.80195E-001, 1.51883E-007
-2.85200E-001, 1.28267E-007
-2.90200E-001, 1.00283E-007
-2.95224E-001, 6.57346E-008
-3.00213E-001, 2.56913E-008
-3.05198E-001, -2.24429E-008
-3.10211E-001, -7.77604E-008
-3.15208E-001, -1.43146E-007
-3.20195E-001, -2.17673E-007
-3.25199E-001, -3.03206E-007
-3.30198E-001, -3.98556E-007
-3.35205E-001, -5.05617E-007
-3.40194E-001, -6.23077E-007
-3.45189E-001, -7.50708E-007
-3.50188E-001, -8.86088E-007
-3.55187E-001, -1.02879E-006
-3.60207E-001, -1.17270E-006
-3.65191E-001, -1.31983E-006
-3.70190E-001, -1.46385E-006
-3.75180E-001, -1.60152E-006
-3.80211E-001, -1.73188E-006
-3.85256E-001, -1.85207E-006
-3.90241E-001, -1.95163E-006
-3.95244E-001, -2.03582E-006
-4.00229E-001, -2.10047E-006
-4.05241E-001, -2.14970E-006
-4.10237E-001, -2.18046E-006
-4.15234E-001, -2.19485E-006
-4.20226E-001, -2.19472E-006
-4.25221E-001, -2.18216E-006
-4.30232E-001, -2.15924E-006
-4.35220E-001, -2.12855E-006
-4.40212E-001, -2.09076E-006
-4.45213E-001, -2.04895E-006
-4.50229E-001, -2.00371E-006
-4.55239E-001, -1.95724E-006
-4.60226E-001, -1.90926E-006
-4.65230E-001, -1.86153E-006
-4.70217E-001, -1.81382E-006
-4.75230E-001, -1.76745E-006
-4.80198E-001, -1.72162E-006
-4.85213E-001, -1.67802E-006
-4.90198E-001, -1.63501E-006
-4.95222E-001, -1.59460E-006
-5.00269E-001, -1.55540E-006
-5.05265E-001, -1.51763E-006
-5.10257E-001, -1.48113E-006
-5.15273E-001, -1.44647E-006
-5.20254E-001, -1.41296E-006
-5.25253E-001, -1.38123E-006
-5.30270E-001, -1.35057E-006
-5.35259E-001, -1.32111E-006
-5.40277E-001, -1.29271E-006
-5.45256E-001, -1.26568E-006
-5.50255E-001, -1.23978E-006
-5.55252E-001, -1.21484E-006
-5.60261E-001, -1.19068E-006
-5.65274E-001, -1.16779E-006
-5.70251E-001, -1.14543E-006
-5.75248E-001, -1.12428E-006
-5.80251E-001, -1.10342E-006
-5.85254E-001, -1.08375E-006
-5.90275E-001, -1.06435E-006
-5.95250E-001, -1.04606E-006
-6.00240E-001, -1.02782E-006
-6.05251E-001, -1.01072E-006
-6.10239E-001, -9.93680E-007
-6.15285E-001, -9.77758E-007
-6.20297E-001, -9.61849E-007
-6.25273E-001, -9.46890E-007
-6.30277E-001, -9.31747E-007
-6.35283E-001, -9.17874E-007
-6.40270E-001, -9.03669E-007
-6.45278E-001, -8.90701E-007
-6.50272E-001, -8.77042E-007
-6.55281E-001, -8.64800E-007
-6.60296E-001, -8.51976E-007
-6.65277E-001, -8.40348E-007
-6.70274E-001, -8.28132E-007
-6.75266E-001, -8.17113E-007
-6.80289E-001, -8.05661E-007
-6.85265E-001, -7.95717E-007
-6.90251E-001, -7.84703E-007
-6.95251E-001, -7.74844E-007
-7.00263E-001, -7.64412E-007
-6.95262E-001, -7.44050E-007
-6.90247E-001, -7.26663E-007
-6.85271E-001, -7.11986E-007
-6.80272E-001, -6.97337E-007
-6.75259E-001, -6.84631E-007
-6.70285E-001, -6.71530E-007
-6.65278E-001, -6.59858E-007
-6.60287E-001, -6.47739E-007
-6.55287E-001, -6.36950E-007
-6.50269E-001, -6.25690E-007
-6.45272E-001, -6.15532E-007
-6.40281E-001, -6.04905E-007
-6.35287E-001, -5.95150E-007
-6.30275E-001, -5.84935E-007
-6.25282E-001, -5.75576E-007
-6.20289E-001, -5.65797E-007
-6.15297E-001, -5.56727E-007
-6.10226E-001, -5.47036E-007
-6.05242E-001, -5.38232E-007
-6.00248E-001, -5.28928E-007
-5.95245E-001, -5.20062E-007
-5.90258E-001, -5.10944E-007
-5.85258E-001, -5.02215E-007
-5.80255E-001, -4.93060E-007
-5.75244E-001, -4.84343E-007
-5.70247E-001, -4.75139E-007
-5.65270E-001, -4.66168E-007
-5.60262E-001, -4.56586E-007
-5.55268E-001, -4.47256E-007
-5.50265E-001, -4.37450E-007
-5.45265E-001, -4.27615E-007
-5.40261E-001, -4.17021E-007
-5.35264E-001, -4.06448E-007
-5.30267E-001, -3.95096E-007
-5.25263E-001, -3.83583E-007
-5.20269E-001, -3.70955E-007
-5.15269E-001, -3.58031E-007
-5.10253E-001, -3.43864E-007
-5.05266E-001, -3.29196E-007
-5.00274E-001, -3.12745E-007
-4.95219E-001, -2.95196E-007
-4.90221E-001, -2.75857E-007
-4.85204E-001, -2.55268E-007
-4.80211E-001, -2.31992E-007
-4.75214E-001, -2.06601E-007
-4.70212E-001, -1.78268E-007
-4.65220E-001, -1.46910E-007
-4.60209E-001, -1.11165E-007
-4.55220E-001, -7.15747E-008
-4.50233E-001, -2.63218E-008
-4.45214E-001, 2.46658E-008
-4.40227E-001, 8.26820E-008
-4.35221E-001, 1.48278E-007
-4.30228E-001, 2.23021E-007
-4.25226E-001, 3.06573E-007
-4.20247E-001, 4.00784E-007
-4.15246E-001, 5.04664E-007
-4.10235E-001, 6.20437E-007
-4.05250E-001, 7.45253E-007
-4.00253E-001, 8.80027E-007
-3.95244E-001, 1.02269E-006
-3.90251E-001, 1.16906E-006
-3.85264E-001, 1.32055E-006
-3.80205E-001, 1.47569E-006
-3.75190E-001, 1.62298E-006
-3.70186E-001, 1.76467E-006
-3.65191E-001, 1.89500E-006
-3.60193E-001, 2.01295E-006
-3.55198E-001, 2.11490E-006
-3.50198E-001, 2.20041E-006
-3.45190E-001, 2.26772E-006
-3.40212E-001, 2.31723E-006
-3.35208E-001, 2.34898E-006
-3.30200E-001, 2.36562E-006
-3.25212E-001, 2.36770E-006
-3.20207E-001, 2.35853E-006
-3.15216E-001, 2.33876E-006
-3.10222E-001, 2.31171E-006
-3.05196E-001, 2.27796E-006
-3.00201E-001, 2.24066E-006
-2.95215E-001, 2.19959E-006
-2.90209E-001, 2.15731E-006
-2.85193E-001, 2.11396E-006
-2.80209E-001, 2.07053E-006
-2.75209E-001, 2.02745E-006
-2.70207E-001, 1.98601E-006
-2.65156E-001, 1.94551E-006
-2.60181E-001, 1.90631E-006
-2.55159E-001, 1.86832E-006
-2.50159E-001, 1.83265E-006
-2.45175E-001, 1.79798E-006
-2.40178E-001, 1.76539E-006
-2.35174E-001, 1.73399E-006
-2.30161E-001, 1.70488E-006
-2.25187E-001, 1.67658E-006
-2.20178E-001, 1.65020E-006
-2.15182E-001, 1.62470E-006
-2.10181E-001, 1.60118E-006
-2.05181E-001, 1.57820E-006
-2.00189E-001, 1.55698E-006
-1.95185E-001, 1.53630E-006
-1.90189E-001, 1.51719E-006
-1.85180E-001, 1.49844E-006
-1.80189E-001, 1.48127E-006
-1.75195E-001, 1.46422E-006
-1.70170E-001, 1.44890E-006
-1.65177E-001, 1.43343E-006
-1.60184E-001, 1.41964E-006
-1.55149E-001, 1.40578E-006
-1.50143E-001, 1.39311E-006
-1.45143E-001, 1.38051E-006
-1.40126E-001, 1.36938E-006
-1.35143E-001, 1.35803E-006
-1.30135E-001, 1.34835E-006
-1.25134E-001, 1.33833E-006
-1.20151E-001, 1.32987E-006
-1.15142E-001, 1.32118E-006
-1.10156E-001, 1.31430E-006
-1.05166E-001, 1.30717E-006
-1.00160E-001, 1.30176E-006
-9.51382E-002, 1.29625E-006
-9.01503E-002, 1.29251E-006
-8.51344E-002, 1.28897E-006
-8.01600E-002, 1.28741E-006
-7.51380E-002, 1.28640E-006
-7.01557E-002, 1.28731E-006
-6.51632E-002, 1.28936E-006
-6.01604E-002, 1.29397E-006
-5.51586E-002, 1.30000E-006
-5.01441E-002, 1.30935E-006
-4.51506E-002, 1.32094E-006
-4.00935E-002, 1.33760E-006
-3.50983E-002, 1.35692E-006
-3.00992E-002, 1.38224E-006
-2.51035E-002, 1.41203E-006
-2.01191E-002, 1.44872E-006
-1.51109E-002, 1.49190E-006
-1.00991E-002, 1.54335E-006
-5.11296E-003, 1.60300E-006
-9.54765E-005, 1.67291E-006
4.87898E-003, 1.75250E-006
9.89280E-003, 1.84480E-006
1.48901E-002, 1.94892E-006
1.98842E-002, 2.06611E-006
2.48911E-002, 2.19586E-006
2.99084E-002, 2.33814E-006
3.48755E-002, 2.49137E-006
3.98823E-002, 2.65400E-006
4.48711E-002, 2.82215E-006
4.98728E-002, 2.99349E-006
5.48783E-002, 3.16373E-006
5.98614E-002, 3.32793E-006
6.48605E-002, 3.48269E-006
6.98808E-002, 3.62276E-006
7.49215E-002, 3.75040E-006
7.99190E-002, 3.85233E-006
8.49128E-002, 3.93399E-006
8.99226E-002, 3.99538E-006
9.49069E-002, 4.03551E-006
9.98895E-002, 4.05724E-006
1.04921E-001, 4.06148E-006
1.09928E-001, 4.05182E-006
1.14928E-001, 4.02865E-006
1.19916E-001, 3.99575E-006
1.24923E-001, 3.95443E-006
1.29918E-001, 3.90781E-006
1.34930E-001, 3.85585E-006
1.39907E-001, 3.80176E-006
1.44921E-001, 3.74547E-006
1.49914E-001, 3.68915E-006
1.54922E-001, 3.63220E-006
1.59920E-001, 3.57641E-006
1.64904E-001, 3.52156E-006
1.69919E-001, 3.46879E-006
1.74915E-001, 3.41697E-006
1.79901E-001, 3.36780E-006
1.84894E-001, 3.32020E-006
1.89951E-001, 3.27556E-006
1.94964E-001, 3.23200E-006
1.99941E-001, 3.19109E-006
2.04954E-001, 3.15170E-006
2.09937E-001, 3.11481E-006
2.14949E-001, 3.07906E-006
2.19949E-001, 3.04595E-006
2.24939E-001, 3.01357E-006
2.29955E-001, 2.98307E-006
2.34943E-001, 2.95406E-006
2.39946E-001, 2.92661E-006
2.44945E-001, 2.89997E-006
2.49939E-001, 2.87528E-006
2.54934E-001, 2.85111E-006
2.59937E-001, 2.82872E-006
2.64927E-001, 2.80641E-006
2.69938E-001, 2.78610E-006
2.74941E-001, 2.76589E-006
2.79914E-001, 2.74721E-006
2.84917E-001, 2.72858E-006
2.89930E-001, 2.71124E-006
2.94942E-001, 2.69407E-006
2.99926E-001, 2.67822E-006
##END=$$ End of the data block
