##TITLE=Spectrum
##JCAMP-DX=5.00 $$ chemotion-converter-app (1.5.0)
##DATA TYPE=SIZE EXCLUSION CHROMATOGRAPHY
##DATA CLASS=XYPOINTS
##ORIGIN=
##OWNER=
##XUNITS=G/MOL
##YUNITS=ARBITRARY UNITS
##LABEL=Vial   1: MS170_crude - 1
##COMMENTS=X:\Marvin Subarew\PAETMC Thiol-ene\MS170\2022-02-04 MS170_crudezoom.TXT
##MN=g/mol
##MW=g/mol
##MP=g/mol
##DETEC1=I2: RI Detector 1, RI Signal
##DETEC2=I2: UV Detector 1, UV Signal
##DETEC3=I2: Pump 1, Sample Pump Pressure
##COL1=PSS SDV 5µm
##COL2=PSS SDV 5µm
##COL3=PSS SDV 5µm
##IN_VOL=50.000
##ELUENT=THF
##FLOW=1.000
##TEMPERATURE=35.000
##DATE=04/02/22
##TIME=11:40:47
##NO_DEC=2
##SOFTWARE=WINGPC
##VERSION=8#1
##OPERATOR=itcp-akt
##FIRSTX=7.38600E+3
##LASTX=5.25759E+4
##MINX=7386.0
##MAXX=52575.9
##MINY=0.00272372
##MAXY=3.43236
##NPOINTS=188
##FIRSTY=1.54334E-2
##XUNITS=G/MOL
##YUNITS=ARBITRARY UNITS
##XYPOINTS=(XY..XY)
7.38600E+3, 1.54334E-2
7.46393E+3, 2.72372E-3
7.54268E+3, 1.92593E-2
7.62226E+3, 2.90888E-2
7.70269E+3, 3.05917E-2
7.78396E+3, 3.60124E-2
7.86608E+3, 3.00781E-2
7.94908E+3, 3.21611E-2
8.03295E+3, 4.11222E-2
8.11770E+3, 4.32265E-2
8.20335E+3, 5.52589E-2
8.28990E+3, 6.28751E-2
8.37737E+3, 6.08576E-2
8.46576E+3, 6.95484E-2
8.55508E+3, 8.30601E-2
8.64534E+3, 9.91345E-2
8.73655E+3, 1.01832E-1
8.82873E+3, 1.06830E-1
8.92188E+3, 1.16191E-1
9.01602E+3, 1.21458E-1
9.11114E+3, 1.36008E-1
9.20727E+3, 1.33372E-1
9.30442E+3, 1.43809E-1
9.40259E+3, 1.59750E-1
9.50179E+3, 1.66398E-1
9.60204E+3, 1.84211E-1
9.70335E+3, 2.00924E-1
9.80573E+3, 2.06259E-1
9.90919E+3, 2.03005E-1
1.00137E+4, 2.16162E-1
1.01194E+4, 2.36978E-1
1.02262E+4, 2.47181E-1
1.03341E+4, 2.61078E-1
1.04431E+4, 2.70504E-1
1.05533E+4, 2.67694E-1
1.06646E+4, 2.79424E-1
1.07771E+4, 3.13933E-1
1.08908E+4, 3.26499E-1
1.10058E+4, 3.35848E-1
1.11219E+4, 3.46802E-1
1.12392E+4, 3.60398E-1
1.13578E+4, 3.74832E-1
1.14776E+4, 3.90975E-1
1.15987E+4, 4.02757E-1
1.17211E+4, 4.11380E-1
1.18448E+4, 4.24043E-1
1.19698E+4, 4.42758E-1
1.20960E+4, 4.61503E-1
1.22237E+4, 4.79051E-1
1.23526E+4, 4.80371E-1
1.24830E+4, 4.93143E-1
1.26147E+4, 5.10551E-1
1.27478E+4, 5.33944E-1
1.28823E+4, 5.47453E-1
1.30182E+4, 5.60502E-1
1.31555E+4, 5.81884E-1
1.32943E+4, 6.13221E-1
1.34346E+4, 6.22532E-1
1.35764E+4, 6.51783E-1
1.37196E+4, 6.81737E-1
1.38644E+4, 6.83478E-1
1.40106E+4, 6.90095E-1
1.41585E+4, 7.14075E-1
1.43078E+4, 7.43763E-1
1.44588E+4, 7.78178E-1
1.46114E+4, 8.02637E-1
1.47655E+4, 8.10842E-1
1.49213E+4, 8.47915E-1
1.50787E+4, 8.69059E-1
1.52378E+4, 8.88724E-1
1.53986E+4, 9.23066E-1
1.55611E+4, 9.65877E-1
1.57253E+4, 1.00283E+0
1.58912E+4, 1.03360E+0
1.60588E+4, 1.06721E+0
1.62283E+4, 1.09792E+0
1.63995E+4, 1.13384E+0
1.65725E+4, 1.16663E+0
1.67474E+4, 1.20540E+0
1.69241E+4, 1.24670E+0
1.71026E+4, 1.28282E+0
1.72831E+4, 1.32743E+0
1.74654E+4, 1.36744E+0
1.76497E+4, 1.41194E+0
1.78359E+4, 1.45643E+0
1.80241E+4, 1.51449E+0
1.82143E+4, 1.56801E+0
1.84065E+4, 1.62124E+0
1.86007E+4, 1.67108E+0
1.87969E+4, 1.72175E+0
1.89952E+4, 1.79315E+0
1.91956E+4, 1.85466E+0
1.93982E+4, 1.91677E+0
1.96028E+4, 1.98833E+0
1.98097E+4, 2.04667E+0
2.00187E+4, 2.12079E+0
2.02299E+4, 2.21193E+0
2.04433E+4, 2.28751E+0
2.06590E+4, 2.34025E+0
2.08770E+4, 2.40888E+0
2.10973E+4, 2.47754E+0
2.13199E+4, 2.55526E+0
2.15448E+4, 2.61913E+0
2.17721E+4, 2.68825E+0
2.20018E+4, 2.77657E+0
2.22340E+4, 2.84824E+0
2.24686E+4, 2.90893E+0
2.27056E+4, 2.96384E+0
2.29452E+4, 3.01822E+0
2.31873E+4, 3.07900E+0
2.34319E+4, 3.14123E+0
2.36792E+4, 3.20207E+0
2.39290E+4, 3.24568E+0
2.41815E+4, 3.28139E+0
2.44366E+4, 3.32059E+0
2.46944E+4, 3.36188E+0
2.49550E+4, 3.39220E+0
2.52183E+4, 3.41204E+0
2.54843E+4, 3.42363E+0
2.57532E+4, 3.42908E+0
2.60249E+4, 3.43236E+0
2.62995E+4, 3.42732E+0
2.65770E+4, 3.40856E+0
2.68574E+4, 3.38061E+0
2.71408E+4, 3.35785E+0
2.74271E+4, 3.31990E+0
2.77165E+4, 3.24936E+0
2.80090E+4, 3.18395E+0
2.83045E+4, 3.12501E+0
2.86031E+4, 3.04220E+0
2.89049E+4, 2.96356E+0
2.92099E+4, 2.87809E+0
2.95181E+4, 2.79410E+0
2.98295E+4, 2.70698E+0
3.01442E+4, 2.60623E+0
3.04623E+4, 2.49755E+0
3.07837E+4, 2.39102E+0
3.11085E+4, 2.28555E+0
3.14367E+4, 2.18037E+0
3.17684E+4, 2.07669E+0
3.21035E+4, 1.97081E+0
3.24423E+4, 1.86897E+0
3.27846E+4, 1.76399E+0
3.31305E+4, 1.66614E+0
3.34800E+4, 1.59178E+0
3.38333E+4, 1.51819E+0
3.41902E+4, 1.43086E+0
3.45510E+4, 1.33774E+0
3.49155E+4, 1.24946E+0
3.52839E+4, 1.17220E+0
3.56562E+4, 1.10118E+0
3.60324E+4, 1.03519E+0
3.64125E+4, 9.68476E-1
3.67967E+4, 8.97636E-1
3.71850E+4, 8.34802E-1
3.75773E+4, 7.78294E-1
3.79738E+4, 7.30529E-1
3.83744E+4, 6.83881E-1
3.87793E+4, 6.41638E-1
3.91885E+4, 5.96793E-1
3.96019E+4, 5.48415E-1
4.00198E+4, 5.04282E-1
4.04420E+4, 4.61436E-1
4.08687E+4, 4.30588E-1
4.12999E+4, 4.05806E-1
4.17357E+4, 3.67609E-1
4.21760E+4, 3.27681E-1
4.26210E+4, 3.03482E-1
4.30707E+4, 2.77318E-1
4.35251E+4, 2.52021E-1
4.39843E+4, 2.33430E-1
4.44484E+4, 2.08681E-1
4.49174E+4, 1.84210E-1
4.53913E+4, 1.61121E-1
4.58702E+4, 1.40816E-1
4.63542E+4, 1.26571E-1
4.68433E+4, 1.17109E-1
4.73375E+4, 1.04449E-1
4.78369E+4, 8.93539E-2
4.83417E+4, 7.26850E-2
4.88517E+4, 6.51156E-2
4.93671E+4, 6.20879E-2
4.98880E+4, 6.15080E-2
5.04144E+4, 5.52993E-2
5.09463E+4, 4.70156E-2
5.14838E+4, 4.44951E-2
5.20270E+4, 4.13558E-2
5.25759E+4, 2.76405E-2
##END=$$ End of the data block
