##TITLE=Spectrum
##JCAMP-DX=5.00 $$ chemotion-converter-app (1.7.0)
##DATA TYPE=SIZE EXCLUSION CHROMATOGRAPHY
##DATA CLASS=XYPOINTS
##ORIGIN=
##OWNER=
##XUNITS=G/MOL
##YUNITS=ARBITRARY UNITS
##LABEL=Vial   1: MS170_crude - 1
##COMMENTS=X:\Marvin Subarew\PAETMC Thiol-ene\MS170\2022-02-04 MS170_crudezoom.TXT
##DETEC1=I2: RI Detector 1, RI Signal
##DETEC2=I2: UV Detector 1, UV Signal
##DETEC3=I2: Pump 1, Sample Pump Pressure
##COL1=PSS SDV 5µm
##COL2=PSS SDV 5µm
##COL3=PSS SDV 5µm
##IN_VOL=50.000
##ELUENT=THF
##FLOW=1.000
##TEMPERATURE=35.000
##DATE=04/02/22
##TIME=11:40:47
##SOFTWARE=WINGPC
##VERSION=8#1
##OPERATOR=itcp-akt
##D=1.104E+0
##MZ1=2.835E+4
##MN=2.203E+4
##MP=2.620E+4
##MV=0.000E+0
##MW=2.432E+4
##MZ=2.642E+4
##VP=2.142E+1
##N=0.000E+0
##FIRSTX=7.38600E+3
##LASTX=5.25759E+4
##MINX=7386.0
##MAXX=52575.9
##MINY=0.0145806
##MAXY=3.14232
##NPOINTS=188
##FIRSTY=2.81535E-1
##XUNITS=G/MOL
##YUNITS=ARBITRARY UNITS
##XYPOINTS=(XY..XY)
7.38600E+3, 2.81535E-1
7.46393E+3, 2.82579E-1
7.54268E+3, 2.87075E-1
7.62226E+3, 2.88431E-1
7.70269E+3, 2.90334E-1
7.78396E+3, 2.93047E-1
7.86608E+3, 2.95413E-1
7.94908E+3, 3.03410E-1
8.03295E+3, 3.03817E-1
8.11770E+3, 3.07084E-1
8.20335E+3, 3.09867E-1
8.28990E+3, 3.17317E-1
8.37737E+3, 3.21698E-1
8.46576E+3, 3.28907E-1
8.55508E+3, 3.34543E-1
8.64534E+3, 3.41755E-1
8.73655E+3, 3.46845E-1
8.82873E+3, 3.55658E-1
8.92188E+3, 3.59077E-1
9.01602E+3, 3.70741E-1
9.11114E+3, 3.73992E-1
9.20727E+3, 3.85924E-1
9.30442E+3, 3.89033E-1
9.40259E+3, 4.01132E-1
9.50179E+3, 4.09496E-1
9.60204E+3, 4.19547E-1
9.70335E+3, 4.29529E-1
9.80573E+3, 4.39388E-1
9.90919E+3, 4.46209E-1
1.00137E+4, 4.57745E-1
1.01194E+4, 4.65025E-1
1.02262E+4, 4.77383E-1
1.03341E+4, 4.84469E-1
1.04431E+4, 5.00350E-1
1.05533E+4, 5.08990E-1
1.06646E+4, 5.23927E-1
1.07771E+4, 5.32145E-1
1.08908E+4, 5.44253E-1
1.10058E+4, 5.56485E-1
1.11219E+4, 5.69936E-1
1.12392E+4, 5.84841E-1
1.13578E+4, 5.96915E-1
1.14776E+4, 6.09021E-1
1.15987E+4, 6.21680E-1
1.17211E+4, 6.33620E-1
1.18448E+4, 6.46997E-1
1.19698E+4, 6.60831E-1
1.20960E+4, 6.75588E-1
1.22237E+4, 6.87212E-1
1.23526E+4, 7.03121E-1
1.24830E+4, 7.17451E-1
1.26147E+4, 7.32975E-1
1.27478E+4, 7.49779E-1
1.28823E+4, 7.65034E-1
1.30182E+4, 7.83429E-1
1.31555E+4, 7.94818E-1
1.32943E+4, 8.12643E-1
1.34346E+4, 8.24783E-1
1.35764E+4, 8.47926E-1
1.37196E+4, 8.62201E-1
1.38644E+4, 8.86231E-1
1.40106E+4, 9.01968E-1
1.41585E+4, 9.24277E-1
1.43078E+4, 9.41317E-1
1.44588E+4, 9.65337E-1
1.46114E+4, 9.89076E-1
1.47655E+4, 1.01208E+0
1.49213E+4, 1.03477E+0
1.50787E+4, 1.05663E+0
1.52378E+4, 1.08212E+0
1.53986E+4, 1.10562E+0
1.55611E+4, 1.13418E+0
1.57253E+4, 1.16155E+0
1.58912E+4, 1.19464E+0
1.60588E+4, 1.22133E+0
1.62283E+4, 1.25290E+0
1.63995E+4, 1.28310E+0
1.65725E+4, 1.31895E+0
1.67474E+4, 1.35954E+0
1.69241E+4, 1.40680E+0
1.71026E+4, 1.44315E+0
1.72831E+4, 1.49094E+0
1.74654E+4, 1.52927E+0
1.76497E+4, 1.58145E+0
1.78359E+4, 1.63101E+0
1.80241E+4, 1.68200E+0
1.82143E+4, 1.73409E+0
1.84065E+4, 1.78775E+0
1.86007E+4, 1.84328E+0
1.87969E+4, 1.90021E+0
1.89952E+4, 1.96057E+0
1.91956E+4, 2.01591E+0
1.93982E+4, 2.07846E+0
1.96028E+4, 2.13840E+0
1.98097E+4, 2.20374E+0
2.00187E+4, 2.26493E+0
2.02299E+4, 2.33121E+0
2.04433E+4, 2.39037E+0
2.06590E+4, 2.45673E+0
2.08770E+4, 2.52027E+0
2.10973E+4, 2.57991E+0
2.13199E+4, 2.63854E+0
2.15448E+4, 2.69621E+0
2.17721E+4, 2.75543E+0
2.20018E+4, 2.80586E+0
2.22340E+4, 2.85872E+0
2.24686E+4, 2.90428E+0
2.27056E+4, 2.95156E+0
2.29452E+4, 2.98891E+0
2.31873E+4, 3.02723E+0
2.34319E+4, 3.05862E+0
2.36792E+4, 3.08708E+0
2.39290E+4, 3.11137E+0
2.41815E+4, 3.12891E+0
2.44366E+4, 3.13891E+0
2.46944E+4, 3.14232E+0
2.49550E+4, 3.14149E+0
2.52183E+4, 3.13203E+0
2.54843E+4, 3.11471E+0
2.57532E+4, 3.09041E+0
2.60249E+4, 3.05736E+0
2.62995E+4, 3.01828E+0
2.65770E+4, 2.96917E+0
2.68574E+4, 2.91661E+0
2.71408E+4, 2.85415E+0
2.74271E+4, 2.78767E+0
2.77165E+4, 2.71436E+0
2.80090E+4, 2.64090E+0
2.83045E+4, 2.56113E+0
2.86031E+4, 2.47719E+0
2.89049E+4, 2.39175E+0
2.92099E+4, 2.30278E+0
2.95181E+4, 2.21318E+0
2.98295E+4, 2.11881E+0
3.01442E+4, 2.02527E+0
3.04623E+4, 1.92969E+0
3.07837E+4, 1.83623E+0
3.11085E+4, 1.74482E+0
3.14367E+4, 1.65361E+0
3.17684E+4, 1.56706E+0
3.21035E+4, 1.48135E+0
3.24423E+4, 1.40051E+0
3.27846E+4, 1.32203E+0
3.31305E+4, 1.24595E+0
3.34800E+4, 1.17559E+0
3.38333E+4, 1.10494E+0
3.41902E+4, 1.03868E+0
3.45510E+4, 9.73690E-1
3.49155E+4, 9.14511E-1
3.52839E+4, 8.56738E-1
3.56562E+4, 8.03072E-1
3.60324E+4, 7.51536E-1
3.64125E+4, 7.00912E-1
3.67967E+4, 6.54719E-1
3.71850E+4, 6.09433E-1
3.75773E+4, 5.68777E-1
3.79738E+4, 5.27560E-1
3.83744E+4, 4.90633E-1
3.87793E+4, 4.53700E-1
3.91885E+4, 4.20405E-1
3.96019E+4, 3.89544E-1
4.00198E+4, 3.59166E-1
4.04420E+4, 3.31746E-1
4.08687E+4, 3.04670E-1
4.12999E+4, 2.77822E-1
4.17357E+4, 2.54838E-1
4.21760E+4, 2.31771E-1
4.26210E+4, 2.12195E-1
4.30707E+4, 1.90538E-1
4.35251E+4, 1.75482E-1
4.39843E+4, 1.57393E-1
4.44484E+4, 1.41912E-1
4.49174E+4, 1.27753E-1
4.53913E+4, 1.14648E-1
4.58702E+4, 1.02911E-1
4.63542E+4, 9.19409E-2
4.68433E+4, 8.13963E-2
4.73375E+4, 7.26742E-2
4.78369E+4, 6.28632E-2
4.83417E+4, 5.75060E-2
4.88517E+4, 4.96654E-2
4.93671E+4, 4.45618E-2
4.98880E+4, 3.70796E-2
5.04144E+4, 3.06339E-2
5.09463E+4, 2.68507E-2
5.14838E+4, 2.27311E-2
5.20270E+4, 1.89064E-2
5.25759E+4, 1.45806E-2
##END=$$ End of the data block
