##TITLE=Spectrum
##JCAMP-DX=5.00 $$ chemotion-converter-app (1.1.0)
##DATA TYPE=SIZE EXCLUSION CHROMATOGRAPHY
##DATA CLASS=XYPOINTS
##ORIGIN=
##OWNER=
##XUNITS=G/MOL
##YUNITS=ARBITRARY UNITS
##NO_DEC=1
##SOFTWARE=WINGPC
##VERSION=8#1
##FIRSTX=1.68802E+4
##LASTX=8.63458E+5
##MINX=16880.2
##MAXX=863458.0
##MINY=0.0
##MAXY=1.52972
##NPOINTS=288
##FIRSTY=5.16958E-3
##XUNITS=G/MOL
##YUNITS=ARBITRARY UNITS
##XYPOINTS=(XY..XY)
1.68802E+4, 5.16958E-3
1.71132E+4, 7.32199E-3
1.73494E+4, 1.01904E-2
1.75889E+4, 1.40133E-2
1.78317E+4, 1.77581E-2
1.80779E+4, 2.22205E-2
1.83274E+4, 2.75034E-2
1.85804E+4, 3.21969E-2
1.88369E+4, 3.75608E-2
1.90970E+4, 4.40560E-2
1.93606E+4, 5.12671E-2
1.96279E+4, 5.73673E-2
1.98988E+4, 6.43964E-2
2.01735E+4, 7.31084E-2
2.04520E+4, 8.04253E-2
2.07343E+4, 8.83747E-2
2.10205E+4, 9.84619E-2
2.13107E+4, 1.06243E-1
2.16049E+4, 1.14121E-1
2.19032E+4, 1.23809E-1
2.22055E+4, 1.31315E-1
2.25121E+4, 1.39579E-1
2.28228E+4, 1.48401E-1
2.31379E+4, 1.54539E-1
2.34573E+4, 1.60543E-1
2.37811E+4, 1.67675E-1
2.41094E+4, 1.72395E-1
2.44422E+4, 1.76868E-1
2.47796E+4, 1.80843E-1
2.51217E+4, 1.84660E-1
2.54685E+4, 1.87110E-1
2.58201E+4, 1.89235E-1
2.61765E+4, 1.90937E-1
2.65379E+4, 1.91837E-1
2.69042E+4, 1.92395E-1
2.72756E+4, 1.92505E-1
2.76521E+4, 1.92445E-1
2.80339E+4, 1.92201E-1
2.84209E+4, 1.91837E-1
2.88132E+4, 1.91888E-1
2.92109E+4, 1.92120E-1
2.96142E+4, 1.92662E-1
3.00230E+4, 1.93630E-1
3.04375E+4, 1.95020E-1
3.08576E+4, 1.97305E-1
3.12836E+4, 1.99705E-1
3.17155E+4, 2.02486E-1
3.21533E+4, 2.06205E-1
3.25971E+4, 2.11031E-1
3.30471E+4, 2.15361E-1
3.35033E+4, 2.20137E-1
3.39658E+4, 2.26771E-1
3.44347E+4, 2.32600E-1
3.49101E+4, 2.38517E-1
3.53920E+4, 2.45669E-1
3.58806E+4, 2.51380E-1
3.63759E+4, 2.57004E-1
3.68780E+4, 2.64396E-1
3.73871E+4, 2.70086E-1
3.79032E+4, 2.75324E-1
3.84265E+4, 2.81640E-1
3.89569E+4, 2.86706E-1
3.94947E+4, 2.91526E-1
4.00399E+4, 2.96269E-1
4.05926E+4, 3.01573E-1
4.11530E+4, 3.05968E-1
4.17211E+4, 3.10284E-1
4.22970E+4, 3.15819E-1
4.28809E+4, 3.20528E-1
4.34729E+4, 3.24861E-1
4.40730E+4, 3.30243E-1
4.46814E+4, 3.35276E-1
4.52982E+4, 3.40696E-1
4.59235E+4, 3.47457E-1
4.65575E+4, 3.53355E-1
4.72002E+4, 3.59118E-1
4.78518E+4, 3.66859E-1
4.85123E+4, 3.74444E-1
4.91820E+4, 3.81839E-1
4.98610E+4, 3.90962E-1
5.05493E+4, 3.99361E-1
5.12471E+4, 4.07296E-1
5.19545E+4, 4.16510E-1
5.26717E+4, 4.27760E-1
5.33989E+4, 4.38042E-1
5.41360E+4, 4.47696E-1
5.48833E+4, 4.60030E-1
5.56410E+4, 4.72592E-1
5.64091E+4, 4.84494E-1
5.71878E+4, 4.98591E-1
5.79772E+4, 5.12073E-1
5.87776E+4, 5.24702E-1
5.95890E+4, 5.40718E-1
6.04116E+4, 5.57000E-1
6.12455E+4, 5.72393E-1
6.20910E+4, 5.90794E-1
6.29481E+4, 6.08823E-1
6.38171E+4, 6.25044E-1
6.46980E+4, 6.46007E-1
6.55912E+4, 6.67493E-1
6.64966E+4, 6.85655E-1
6.74146E+4, 7.04463E-1
6.83452E+4, 7.27198E-1
6.92887E+4, 7.51327E-1
7.02452E+4, 7.73481E-1
7.12149E+4, 7.98253E-1
7.21980E+4, 8.22855E-1
7.31946E+4, 8.44613E-1
7.42051E+4, 8.71229E-1
7.52294E+4, 8.99096E-1
7.62679E+4, 9.21745E-1
7.73208E+4, 9.47608E-1
7.83882E+4, 9.74775E-1
7.94703E+4, 9.98841E-1
8.05673E+4, 1.02643E+0
8.16795E+4, 1.05299E+0
8.28071E+4, 1.07409E+0
8.39502E+4, 1.09610E+0
8.51091E+4, 1.12081E+0
8.62840E+4, 1.14741E+0
8.74751E+4, 1.17004E+0
8.86826E+4, 1.19341E+0
8.99068E+4, 1.21710E+0
9.11480E+4, 1.23618E+0
9.24062E+4, 1.25776E+0
9.36819E+4, 1.28106E+0
9.49751E+4, 1.29794E+0
9.62862E+4, 1.31593E+0
9.76154E+4, 1.33543E+0
9.89629E+4, 1.35041E+0
1.00329E+5, 1.36615E+0
1.01714E+5, 1.38381E+0
1.03118E+5, 1.39611E+0
1.04542E+5, 1.40864E+0
1.05985E+5, 1.42276E+0
1.07448E+5, 1.43333E+0
1.08931E+5, 1.44241E+0
1.10435E+5, 1.45154E+0
1.11959E+5, 1.46126E+0
1.13505E+5, 1.46850E+0
1.15072E+5, 1.47605E+0
1.16660E+5, 1.48327E+0
1.18271E+5, 1.48833E+0
1.19903E+5, 1.49348E+0
1.21559E+5, 1.49928E+0
1.23237E+5, 1.50381E+0
1.24938E+5, 1.50804E+0
1.26663E+5, 1.51240E+0
1.28411E+5, 1.51552E+0
1.30184E+5, 1.51859E+0
1.31981E+5, 1.52188E+0
1.33803E+5, 1.52425E+0
1.35650E+5, 1.52635E+0
1.37523E+5, 1.52817E+0
1.39421E+5, 1.52917E+0
1.41346E+5, 1.52972E+0
1.43297E+5, 1.52960E+0
1.45275E+5, 1.52867E+0
1.47280E+5, 1.52747E+0
1.49314E+5, 1.52545E+0
1.51375E+5, 1.52134E+0
1.53464E+5, 1.51713E+0
1.55583E+5, 1.51187E+0
1.57731E+5, 1.50394E+0
1.59908E+5, 1.49705E+0
1.62116E+5, 1.48887E+0
1.64354E+5, 1.47588E+0
1.66622E+5, 1.46428E+0
1.68923E+5, 1.45092E+0
1.71254E+5, 1.43269E+0
1.73618E+5, 1.41749E+0
1.76015E+5, 1.40193E+0
1.78445E+5, 1.38290E+0
1.80908E+5, 1.35836E+0
1.83406E+5, 1.33994E+0
1.85938E+5, 1.32083E+0
1.88504E+5, 1.29477E+0
1.91107E+5, 1.27319E+0
1.93745E+5, 1.25032E+0
1.96419E+5, 1.22381E+0
1.99131E+5, 1.20300E+0
2.01880E+5, 1.18219E+0
2.04667E+5, 1.15498E+0
2.07492E+5, 1.13161E+0
2.10356E+5, 1.10967E+0
2.13260E+5, 1.08307E+0
2.16204E+5, 1.06255E+0
2.19189E+5, 1.04254E+0
2.22214E+5, 1.01668E+0
2.25282E+5, 9.94857E-1
2.28392E+5, 9.74367E-1
2.31545E+5, 9.54820E-1
2.34741E+5, 9.30117E-1
2.37982E+5, 9.10156E-1
2.41267E+5, 8.88976E-1
2.44597E+5, 8.64558E-1
2.47974E+5, 8.45227E-1
2.51397E+5, 8.26972E-1
2.54868E+5, 8.03251E-1
2.58386E+5, 7.81889E-1
2.61953E+5, 7.61989E-1
2.65569E+5, 7.38803E-1
2.69235E+5, 7.19476E-1
2.72952E+5, 7.01200E-1
2.76720E+5, 6.76715E-1
2.80540E+5, 6.55867E-1
2.84412E+5, 6.37845E-1
2.88338E+5, 6.15162E-1
2.92319E+5, 5.94924E-1
2.96354E+5, 5.76232E-1
3.00445E+5, 5.56937E-1
3.04593E+5, 5.35268E-1
3.08797E+5, 5.16321E-1
3.13060E+5, 4.99657E-1
3.17382E+5, 4.79244E-1
3.21763E+5, 4.61142E-1
3.26205E+5, 4.44659E-1
3.30708E+5, 4.25389E-1
3.35273E+5, 4.08856E-1
3.39902E+5, 3.94970E-1
3.44594E+5, 3.78720E-1
3.49351E+5, 3.63504E-1
3.54174E+5, 3.50316E-1
3.59063E+5, 3.36016E-1
3.64019E+5, 3.23330E-1
3.69045E+5, 3.13061E-1
3.74139E+5, 3.02439E-1
3.79304E+5, 2.90466E-1
3.84540E+5, 2.79849E-1
3.89848E+5, 2.71138E-1
3.95230E+5, 2.60607E-1
4.00686E+5, 2.50545E-1
4.06217E+5, 2.42715E-1
4.11825E+5, 2.33645E-1
4.17510E+5, 2.24454E-1
4.23274E+5, 2.16564E-1
4.29117E+5, 2.07066E-1
4.35040E+5, 1.97065E-1
4.41046E+5, 1.88978E-1
4.47134E+5, 1.79498E-1
4.53307E+5, 1.69435E-1
4.59565E+5, 1.60766E-1
4.65909E+5, 1.50211E-1
4.72340E+5, 1.39718E-1
4.78861E+5, 1.31452E-1
4.85471E+5, 1.22685E-1
4.92173E+5, 1.12571E-1
4.98967E+5, 1.01722E-1
5.05855E+5, 9.35719E-2
5.12838E+5, 8.49638E-2
5.19918E+5, 7.59052E-2
5.27095E+5, 6.87961E-2
5.34371E+5, 6.10382E-2
5.41748E+5, 5.36917E-2
5.49227E+5, 4.86204E-2
5.56808E+5, 4.31925E-2
5.64495E+5, 3.72946E-2
5.72287E+5, 3.29623E-2
5.80188E+5, 2.87259E-2
5.88197E+5, 2.46301E-2
5.96317E+5, 2.17906E-2
6.04549E+5, 1.87986E-2
6.12894E+5, 1.55229E-2
6.21355E+5, 1.31932E-2
6.29932E+5, 1.11566E-2
6.38628E+5, 9.25227E-3
6.47444E+5, 7.16980E-3
6.56382E+5, 5.80369E-3
6.65443E+5, 4.33133E-3
6.74629E+5, 2.78641E-3
6.83942E+5, 1.83549E-3
6.93384E+5, 8.58047E-4
7.02955E+5, 0.00000E+0
7.12659E+5, 0.00000E+0
7.22497E+5, 0.00000E+0
7.32471E+5, 0.00000E+0
7.42582E+5, 0.00000E+0
7.52833E+5, 0.00000E+0
7.63226E+5, 0.00000E+0
7.73762E+5, 0.00000E+0
7.84443E+5, 0.00000E+0
7.95272E+5, 0.00000E+0
8.06251E+5, 0.00000E+0
8.17381E+5, 0.00000E+0
8.28664E+5, 0.00000E+0
8.40103E+5, 0.00000E+0
8.51701E+5, 0.00000E+0
8.63458E+5, 0.00000E+0
##END=$$ End of the data block
