##TITLE=Spectrum
##JCAMP-DX=5.00 $$ chemotion-converter-app (1.7.0)
##DATA TYPE=SIZE EXCLUSION CHROMATOGRAPHY
##DATA CLASS=XYPOINTS
##ORIGIN=
##OWNER=
##XUNITS=MILLILITERS
##YUNITS=ARBITRARY UNITS
##LABEL=Vial   8: MS-185 - 1
##COMMENTS=\\129.13.136.127\Shared_Folder\Analysis\GPC_THF_CS_R311\Marvin Subarew\MS-185\MS-185_Lichtstreuung.TXT
##DETEC1=I1: RID 1, RI Signal
##DETEC2=I1: VWD 1, Signal A
##DETEC3=I1: IsoPump 1, Pressure
##COL1=default
##IN_VOL=100.000
##ELUENT=THF
##FLOW=1.000
##TEMPERATURE=25.000
##DATE=15.08.22
##TIME=21:06:30
##SOFTWARE=WINGPC
##VERSION=8#1
##OPERATOR=GPCAdmin
##D=1.504E+0
##MZ1=2.640E+5
##MN=9.867E+4
##MP=1.412E+5
##MV=1.405E+5
##MW=1.484E+5
##MZ=2.046E+5
##VP=1.601E+1
##N=4.561E+4
##FIRSTX=1.35112E+1
##LASTX=1.86476E+1
##MINX=13.5112
##MAXX=18.6476
##MINY=0.0
##MAXY=99.9934
##NPOINTS=311
##FIRSTY=0.00000E+0
##XUNITS=MILLILITERS
##YUNITS=ARBITRARY UNITS
##XYPOINTS=(XY..XY)
1.35112E+1, 0.00000E+0
1.35277E+1, 1.76145E-1
1.35443E+1, 3.71807E-1
1.35609E+1, 3.47133E-1
1.35774E+1, 2.71628E-1
1.35940E+1, 1.12431E-1
1.36106E+1, 4.23304E-2
1.36272E+1, 2.00262E-3
1.36437E+1, 0.00000E+0
1.36603E+1, 0.00000E+0
1.36769E+1, 1.45658E-1
1.36934E+1, 2.30159E-1
1.37100E+1, 2.41458E-1
1.37266E+1, 1.64070E-1
1.37431E+1, 1.43940E-2
1.37597E+1, 0.00000E+0
1.37763E+1, 0.00000E+0
1.37928E+1, 0.00000E+0
1.38094E+1, 0.00000E+0
1.38260E+1, 0.00000E+0
1.38426E+1, 0.00000E+0
1.38591E+1, 6.01799E-3
1.38757E+1, 1.67658E-1
1.38923E+1, 5.13415E-1
1.39088E+1, 7.93210E-1
1.39254E+1, 1.00506E+0
1.39420E+1, 1.16005E+0
1.39585E+1, 1.30729E+0
1.39751E+1, 1.52342E+0
1.39917E+1, 1.73834E+0
1.40082E+1, 2.04571E+0
1.40248E+1, 2.42002E+0
1.40414E+1, 2.82604E+0
1.40580E+1, 3.26023E+0
1.40745E+1, 3.68240E+0
1.40911E+1, 3.99536E+0
1.41077E+1, 4.25687E+0
1.41242E+1, 4.52819E+0
1.41408E+1, 4.81227E+0
1.41574E+1, 5.30283E+0
1.41739E+1, 5.86550E+0
1.41905E+1, 6.47784E+0
1.42071E+1, 7.17897E+0
1.42236E+1, 7.79759E+0
1.42402E+1, 8.54640E+0
1.42568E+1, 9.28866E+0
1.42734E+1, 1.00352E+1
1.42899E+1, 1.08698E+1
1.43065E+1, 1.16785E+1
1.43231E+1, 1.25825E+1
1.43396E+1, 1.34570E+1
1.43562E+1, 1.42873E+1
1.43728E+1, 1.52884E+1
1.43893E+1, 1.64912E+1
1.44059E+1, 1.80480E+1
1.44225E+1, 1.96195E+1
1.44390E+1, 2.11112E+1
1.44556E+1, 2.25556E+1
1.44722E+1, 2.40011E+1
1.44888E+1, 2.54753E+1
1.45053E+1, 2.66901E+1
1.45219E+1, 2.78475E+1
1.45385E+1, 2.91293E+1
1.45550E+1, 3.05188E+1
1.45716E+1, 3.22060E+1
1.45882E+1, 3.38755E+1
1.46047E+1, 3.54827E+1
1.46213E+1, 3.70006E+1
1.46379E+1, 3.83541E+1
1.46544E+1, 3.98981E+1
1.46710E+1, 4.15198E+1
1.46876E+1, 4.29349E+1
1.47042E+1, 4.43204E+1
1.47207E+1, 4.57076E+1
1.47373E+1, 4.71617E+1
1.47539E+1, 4.85167E+1
1.47704E+1, 4.96956E+1
1.47870E+1, 5.08396E+1
1.48036E+1, 5.19823E+1
1.48201E+1, 5.32781E+1
1.48367E+1, 5.45899E+1
1.48533E+1, 5.58597E+1
1.48698E+1, 5.70757E+1
1.48864E+1, 5.82636E+1
1.49030E+1, 5.97214E+1
1.49196E+1, 6.11213E+1
1.49361E+1, 6.24050E+1
1.49527E+1, 6.37182E+1
1.49693E+1, 6.50112E+1
1.49858E+1, 6.66253E+1
1.50024E+1, 6.83591E+1
1.50190E+1, 6.99704E+1
1.50355E+1, 7.16041E+1
1.50521E+1, 7.30981E+1
1.50687E+1, 7.44069E+1
1.50852E+1, 7.55675E+1
1.51018E+1, 7.64672E+1
1.51184E+1, 7.73612E+1
1.51350E+1, 7.83942E+1
1.51515E+1, 7.96359E+1
1.51681E+1, 8.09778E+1
1.51847E+1, 8.21915E+1
1.52012E+1, 8.32929E+1
1.52178E+1, 8.42157E+1
1.52344E+1, 8.51292E+1
1.52509E+1, 8.59211E+1
1.52675E+1, 8.66313E+1
1.52841E+1, 8.73561E+1
1.53006E+1, 8.81224E+1
1.53172E+1, 8.89936E+1
1.53338E+1, 8.99251E+1
1.53504E+1, 9.07149E+1
1.53669E+1, 9.14577E+1
1.53835E+1, 9.21284E+1
1.54001E+1, 9.26122E+1
1.54166E+1, 9.29783E+1
1.54332E+1, 9.33207E+1
1.54498E+1, 9.37754E+1
1.54663E+1, 9.44300E+1
1.54829E+1, 9.52809E+1
1.54995E+1, 9.63550E+1
1.55160E+1, 9.73548E+1
1.55326E+1, 9.77830E+1
1.55492E+1, 9.80542E+1
1.55658E+1, 9.81368E+1
1.55823E+1, 9.82116E+1
1.55989E+1, 9.83178E+1
1.56155E+1, 9.85336E+1
1.56320E+1, 9.89690E+1
1.56486E+1, 9.95482E+1
1.56652E+1, 9.99934E+1
1.56817E+1, 9.99646E+1
1.56983E+1, 9.98235E+1
1.57149E+1, 9.92534E+1
1.57314E+1, 9.85180E+1
1.57480E+1, 9.77189E+1
1.57646E+1, 9.70570E+1
1.57812E+1, 9.64497E+1
1.57977E+1, 9.58795E+1
1.58143E+1, 9.53038E+1
1.58309E+1, 9.45652E+1
1.58474E+1, 9.37447E+1
1.58640E+1, 9.27138E+1
1.58806E+1, 9.15178E+1
1.58971E+1, 9.05107E+1
1.59137E+1, 8.92839E+1
1.59303E+1, 8.82320E+1
1.59469E+1, 8.71594E+1
1.59634E+1, 8.58461E+1
1.59800E+1, 8.42985E+1
1.59966E+1, 8.21881E+1
1.60131E+1, 8.03826E+1
1.60297E+1, 7.86282E+1
1.60463E+1, 7.69588E+1
1.60628E+1, 7.53264E+1
1.60794E+1, 7.35205E+1
1.60960E+1, 7.19901E+1
1.61125E+1, 7.04498E+1
1.61291E+1, 6.90210E+1
1.61457E+1, 6.72561E+1
1.61623E+1, 6.53456E+1
1.61788E+1, 6.37503E+1
1.61954E+1, 6.22665E+1
1.62120E+1, 6.09375E+1
1.62285E+1, 5.97547E+1
1.62451E+1, 5.87511E+1
1.62617E+1, 5.74191E+1
1.62782E+1, 5.62087E+1
1.62948E+1, 5.47869E+1
1.63114E+1, 5.32734E+1
1.63279E+1, 5.20766E+1
1.63445E+1, 5.05622E+1
1.63611E+1, 4.94300E+1
1.63777E+1, 4.80895E+1
1.63942E+1, 4.69255E+1
1.64108E+1, 4.58688E+1
1.64274E+1, 4.47274E+1
1.64439E+1, 4.39310E+1
1.64605E+1, 4.30609E+1
1.64771E+1, 4.20634E+1
1.64936E+1, 4.06460E+1
1.65102E+1, 3.94610E+1
1.65268E+1, 3.82845E+1
1.65433E+1, 3.71438E+1
1.65599E+1, 3.60892E+1
1.65765E+1, 3.49076E+1
1.65931E+1, 3.39696E+1
1.66096E+1, 3.29058E+1
1.66262E+1, 3.19527E+1
1.66428E+1, 3.10400E+1
1.66593E+1, 3.00282E+1
1.66759E+1, 2.91807E+1
1.66925E+1, 2.83898E+1
1.67090E+1, 2.76432E+1
1.67256E+1, 2.69457E+1
1.67422E+1, 2.62215E+1
1.67587E+1, 2.56620E+1
1.67753E+1, 2.52014E+1
1.67919E+1, 2.47897E+1
1.68085E+1, 2.43959E+1
1.68250E+1, 2.38689E+1
1.68416E+1, 2.32488E+1
1.68582E+1, 2.24726E+1
1.68747E+1, 2.17954E+1
1.68913E+1, 2.11421E+1
1.69079E+1, 2.05120E+1
1.69244E+1, 1.99204E+1
1.69410E+1, 1.94506E+1
1.69576E+1, 1.88811E+1
1.69741E+1, 1.81497E+1
1.69907E+1, 1.74632E+1
1.70073E+1, 1.69443E+1
1.70239E+1, 1.64859E+1
1.70404E+1, 1.60917E+1
1.70570E+1, 1.56440E+1
1.70736E+1, 1.51518E+1
1.70901E+1, 1.45528E+1
1.71067E+1, 1.39402E+1
1.71233E+1, 1.34514E+1
1.71398E+1, 1.31292E+1
1.71564E+1, 1.29467E+1
1.71730E+1, 1.28515E+1
1.71895E+1, 1.27462E+1
1.72061E+1, 1.26501E+1
1.72227E+1, 1.24940E+1
1.72393E+1, 1.21748E+1
1.72558E+1, 1.17999E+1
1.72724E+1, 1.14613E+1
1.72890E+1, 1.10811E+1
1.73055E+1, 1.06857E+1
1.73221E+1, 1.02674E+1
1.73387E+1, 9.90943E+0
1.73552E+1, 9.56129E+0
1.73718E+1, 9.20542E+0
1.73884E+1, 8.85335E+0
1.74049E+1, 8.47622E+0
1.74215E+1, 8.14832E+0
1.74381E+1, 7.90346E+0
1.74547E+1, 7.75194E+0
1.74712E+1, 7.67653E+0
1.74878E+1, 7.62332E+0
1.75044E+1, 7.60618E+0
1.75209E+1, 7.60018E+0
1.75375E+1, 7.56038E+0
1.75541E+1, 7.44519E+0
1.75706E+1, 7.17084E+0
1.75872E+1, 6.86658E+0
1.76038E+1, 6.63317E+0
1.76203E+1, 6.39225E+0
1.76369E+1, 6.16026E+0
1.76535E+1, 5.95492E+0
1.76701E+1, 5.80826E+0
1.76866E+1, 5.73010E+0
1.77032E+1, 5.66100E+0
1.77198E+1, 5.59682E+0
1.77363E+1, 5.53372E+0
1.77529E+1, 5.45303E+0
1.77695E+1, 5.34571E+0
1.77860E+1, 5.21019E+0
1.78026E+1, 5.05695E+0
1.78192E+1, 4.90862E+0
1.78357E+1, 4.70848E+0
1.78523E+1, 4.46270E+0
1.78689E+1, 4.22988E+0
1.78855E+1, 3.90540E+0
1.79020E+1, 3.51163E+0
1.79186E+1, 3.12858E+0
1.79352E+1, 2.72942E+0
1.79517E+1, 2.35826E+0
1.79683E+1, 2.09681E+0
1.79849E+1, 1.95660E+0
1.80014E+1, 1.88724E+0
1.80180E+1, 1.83754E+0
1.80346E+1, 1.83943E+0
1.80511E+1, 1.97990E+0
1.80677E+1, 2.18017E+0
1.80843E+1, 2.24156E+0
1.81009E+1, 2.25125E+0
1.81174E+1, 2.19414E+0
1.81340E+1, 2.09224E+0
1.81506E+1, 1.95570E+0
1.81671E+1, 1.81495E+0
1.81837E+1, 1.73789E+0
1.82003E+1, 1.71869E+0
1.82168E+1, 1.72440E+0
1.82334E+1, 1.84139E+0
1.82500E+1, 2.04511E+0
1.82665E+1, 2.30513E+0
1.82831E+1, 2.61973E+0
1.82997E+1, 2.83601E+0
1.83163E+1, 2.82333E+0
1.83328E+1, 2.75600E+0
1.83494E+1, 2.61475E+0
1.83660E+1, 2.45349E+0
1.83825E+1, 2.36073E+0
1.83991E+1, 2.28968E+0
1.84157E+1, 2.21699E+0
1.84322E+1, 2.15524E+0
1.84488E+1, 2.08859E+0
1.84654E+1, 2.01501E+0
1.84819E+1, 1.95113E+0
1.84985E+1, 1.90167E+0
1.85151E+1, 1.86532E+0
1.85317E+1, 1.83984E+0
1.85482E+1, 1.78456E+0
1.85648E+1, 1.67865E+0
1.85814E+1, 1.44386E+0
1.85979E+1, 1.06168E+0
1.86145E+1, 6.92071E-1
1.86311E+1, 3.14652E-1
1.86476E+1, 0.00000E+0
##END=$$ End of the data block
