##TITLE=Spectrum
##JCAMP-DX=5.00 $$ chemotion-converter-app (1.1.0)
##DATA TYPE=CYCLIC VOLTAMMETRY
##DATA CLASS=XYPOINTS
##ORIGIN=
##OWNER=
##XUNITS=Voltage vs Ref
##YUNITS=Ampere
##SCAN_RATE=0.09980451
##STEP_SIZE=0.00197972
##VOLTAGE_LIMIT_END=1.00006103
##VOLTAGE_START=0.99807739
##VOLTAGE_LIMIT_ONE=0.79971313
##VOLTAGE_LIMIT_TWO=1.30157470
##FIRSTX=0.998077392578125
##LASTX=1.00006103515625
##MINX=0.799713134765625
##MAXX=1.30157470703125
##MINY=-1.2713623046875e-07
##MAXY=4.87640380859375e-06
##NPOINTS=506
##FIRSTY=-1.009521484375E-07
##XUNITS=Voltage vs Ref
##YUNITS=Ampere
##XYPOINTS=(XY..XY)
0.998077392578125, -1.009521484375E-07
0.99609375, -1.04217529296875E-07
0.994110107421875, -1.05438232421875E-07
0.99212646484375, -1.06201171875E-07
0.990142822265625, -1.05316162109375E-07
0.9881591796875, -1.033935546875E-07
0.986175537109375, -1.00494384765625E-07
0.98419189453125, -9.7564697265625E-08
0.982208251953125, -9.527587890625E-08
0.980224609375, -9.2864990234375E-08
0.978240966796875, -9.033203125E-08
0.97625732421875, -8.7799072265625E-08
0.974273681640625, -8.3282470703125E-08
0.9722900390625, -7.72705078125E-08
0.970306396484375, -7.1258544921875E-08
0.96832275390625, -6.4178466796875E-08
0.966339111328125, -5.79833984375E-08
0.96435546875, -5.1666259765625E-08
0.962371826171875, -4.60205078125E-08
0.96038818359375, -4.013671875E-08
0.958404541015625, -3.424072265625E-08
0.9564208984375, -2.70751953125E-08
0.954437255859375, -1.942138671875E-08
0.95245361328125, -1.094970703125E-08
0.950469970703125, -1.953125E-09
0.948486328125, 6.6680908203125E-09
0.946502685546875, 1.46270751953125E-08
0.94451904296875, 2.2235107421875E-08
0.942535400390625, 2.92572021484375E-08
0.9405517578125, 3.70025634765625E-08
0.938568115234375, 4.4403076171875E-08
0.93658447265625, 5.2978515625E-08
0.934600830078125, 6.1920166015625E-08
0.9326171875, 7.0709228515625E-08
0.930633544921875, 7.965087890625E-08
0.92864990234375, 8.721923828125E-08
0.926666259765625, 9.4818115234375E-08
0.9246826171875, 1.01470947265625E-07
0.922698974609375, 1.07818603515625E-07
0.92071533203125, 1.14776611328125E-07
0.918731689453125, 1.219482421875E-07
0.916748046875, 1.29302978515625E-07
0.914764404296875, 1.3623046875E-07
0.91278076171875, 1.429443359375E-07
0.910797119140625, 1.49566650390625E-07
0.9088134765625, 1.5496826171875E-07
0.906829833984375, 1.6021728515625E-07
0.90484619140625, 1.64520263671875E-07
0.902862548828125, 1.6876220703125E-07
0.90087890625, 1.7315673828125E-07
0.898895263671875, 1.7791748046875E-07
0.89691162109375, 1.82708740234375E-07
0.894927978515625, 1.8701171875E-07
0.8929443359375, 1.90460205078125E-07
0.890960693359375, 1.9366455078125E-07
0.88897705078125, 1.95465087890625E-07
0.886993408203125, 1.97265625E-07
0.885009765625, 1.97998046875E-07
0.883026123046875, 1.99066162109375E-07
0.88104248046875, 2.00775146484375E-07
0.879058837890625, 2.02606201171875E-07
0.8770751953125, 2.0367431640625E-07
0.875091552734375, 2.04437255859375E-07
0.87310791015625, 2.0440673828125E-07
0.871124267578125, 2.032470703125E-07
0.869140625, 2.0123291015625E-07
0.867156982421875, 1.99737548828125E-07
0.86517333984375, 1.9732666015625E-07
0.863189697265625, 1.95526123046875E-07
0.8612060546875, 1.93572998046875E-07
0.859222412109375, 1.917724609375E-07
0.85723876953125, 1.89300537109375E-07
0.855255126953125, 1.86676025390625E-07
0.853271484375, 1.82708740234375E-07
0.851287841796875, 1.7791748046875E-07
0.84930419921875, 1.73004150390625E-07
0.847320556640625, 1.6741943359375E-07
0.8453369140625, 1.62384033203125E-07
0.843353271484375, 1.5740966796875E-07
0.84136962890625, 1.524658203125E-07
0.839385986328125, 1.4727783203125E-07
0.83740234375, 1.41571044921875E-07
0.835418701171875, 1.3507080078125E-07
0.83343505859375, 1.28173828125E-07
0.831451416015625, 1.20330810546875E-07
0.8294677734375, 1.12457275390625E-07
0.827484130859375, 1.04705810546875E-07
0.82550048828125, 9.6832275390625E-08
0.823516845703125, 8.9447021484375E-08
0.821533203125, 8.16650390625E-08
0.819549560546875, 7.38525390625E-08
0.81756591796875, 6.60400390625E-08
0.815582275390625, 5.712890625E-08
0.8135986328125, 4.779052734375E-08
0.811614990234375, 3.85467529296875E-08
0.80963134765625, 2.92572021484375E-08
0.807647705078125, 1.99005126953125E-08
0.8056640625, 1.055908203125E-08
0.803680419921875, 1.7913818359375E-09
0.80169677734375, -7.3486328125E-09
0.799713134765625, -1.6497802734375E-08
0.80169677734375, 3.1488037109375E-08
0.803680419921875, 7.53173828125E-08
0.8056640625, 1.1663818359375E-07
0.807647705078125, 1.57135009765625E-07
0.80963134765625, 1.9696044921875E-07
0.811614990234375, 2.36663818359375E-07
0.8135986328125, 2.763671875E-07
0.815582275390625, 3.1561279296875E-07
0.81756591796875, 3.55194091796875E-07
0.819549560546875, 3.93096923828125E-07
0.821533203125, 4.31060791015625E-07
0.823516845703125, 4.68780517578125E-07
0.82550048828125, 5.05889892578125E-07
0.827484130859375, 5.42755126953125E-07
0.8294677734375, 5.7965087890625E-07
0.831451416015625, 6.16302490234375E-07
0.83343505859375, 6.5399169921875E-07
0.835418701171875, 6.9000244140625E-07
0.83740234375, 7.2357177734375E-07
0.839385986328125, 7.5714111328125E-07
0.84136962890625, 7.8887939453125E-07
0.843353271484375, 8.197021484375E-07
0.8453369140625, 8.502197265625E-07
0.847320556640625, 8.7982177734375E-07
0.84930419921875, 9.0972900390625E-07
0.851287841796875, 9.3841552734375E-07
0.853271484375, 9.65576171875E-07
0.855255126953125, 9.92431640625E-07
0.85723876953125, 1.01593017578125E-06
0.859222412109375, 1.03912353515625E-06
0.8612060546875, 1.0601806640625E-06
0.863189697265625, 1.08123779296875E-06
0.86517333984375, 1.10137939453125E-06
0.867156982421875, 1.1212158203125E-06
0.869140625, 1.1407470703125E-06
0.871124267578125, 1.15936279296875E-06
0.87310791015625, 1.1773681640625E-06
0.875091552734375, 1.19232177734375E-06
0.8770751953125, 1.20635986328125E-06
0.879058837890625, 1.21917724609375E-06
0.88104248046875, 1.23138427734375E-06
0.883026123046875, 1.24298095703125E-06
0.885009765625, 1.25457763671875E-06
0.886993408203125, 1.2664794921875E-06
0.88897705078125, 1.27838134765625E-06
0.890960693359375, 1.2896728515625E-06
0.8929443359375, 1.298828125E-06
0.894927978515625, 1.307373046875E-06
0.89691162109375, 1.31317138671875E-06
0.898895263671875, 1.31988525390625E-06
0.90087890625, 1.326904296875E-06
0.902862548828125, 1.3336181640625E-06
0.90484619140625, 1.341552734375E-06
0.906829833984375, 1.34918212890625E-06
0.9088134765625, 1.35650634765625E-06
0.910797119140625, 1.36322021484375E-06
0.91278076171875, 1.3690185546875E-06
0.914764404296875, 1.37359619140625E-06
0.916748046875, 1.37664794921875E-06
0.918731689453125, 1.38153076171875E-06
0.92071533203125, 1.3861083984375E-06
0.922698974609375, 1.3922119140625E-06
0.9246826171875, 1.39862060546875E-06
0.926666259765625, 1.4044189453125E-06
0.92864990234375, 1.4111328125E-06
0.930633544921875, 1.41571044921875E-06
0.9326171875, 1.419677734375E-06
0.934600830078125, 1.42364501953125E-06
0.93658447265625, 1.427001953125E-06
0.938568115234375, 1.431884765625E-06
0.9405517578125, 1.43768310546875E-06
0.942535400390625, 1.4447021484375E-06
0.94451904296875, 1.4520263671875E-06
0.946502685546875, 1.458740234375E-06
0.948486328125, 1.46392822265625E-06
0.950469970703125, 1.46942138671875E-06
0.95245361328125, 1.4739990234375E-06
0.954437255859375, 1.47918701171875E-06
0.9564208984375, 1.485595703125E-06
0.958404541015625, 1.494140625E-06
0.96038818359375, 1.50177001953125E-06
0.962371826171875, 1.5106201171875E-06
0.96435546875, 1.51947021484375E-06
0.966339111328125, 1.52740478515625E-06
0.96832275390625, 1.534423828125E-06
0.970306396484375, 1.541748046875E-06
0.9722900390625, 1.54998779296875E-06
0.974273681640625, 1.55853271484375E-06
0.97625732421875, 1.56951904296875E-06
0.978240966796875, 1.5814208984375E-06
0.980224609375, 1.59423828125E-06
0.982208251953125, 1.6064453125E-06
0.98419189453125, 1.61895751953125E-06
0.986175537109375, 1.63116455078125E-06
0.9881591796875, 1.64306640625E-06
0.990142822265625, 1.65557861328125E-06
0.99212646484375, 1.66961669921875E-06
0.994110107421875, 1.685791015625E-06
0.99609375, 1.70318603515625E-06
0.998077392578125, 1.722412109375E-06
1.00006103515625, 1.74224853515625E-06
1.00204467773438, 1.76177978515625E-06
1.0040283203125, 1.78192138671875E-06
1.00601196289063, 1.80145263671875E-06
1.00799560546875, 1.82373046875E-06
1.00997924804688, 1.8463134765625E-06
1.011962890625, 1.87164306640625E-06
1.01394653320313, 1.898193359375E-06
1.01593017578125, 1.927490234375E-06
1.01791381835938, 1.95770263671875E-06
1.0198974609375, 1.98944091796875E-06
1.02188110351563, 2.0220947265625E-06
1.02386474609375, 2.05474853515625E-06
1.02584838867188, 2.08953857421875E-06
1.02783203125, 2.12615966796875E-06
1.02981567382813, 2.16552734375E-06
1.03179931640625, 2.2064208984375E-06
1.03378295898438, 2.249755859375E-06
1.0357666015625, 2.2955322265625E-06
1.03775024414063, 2.34283447265625E-06
1.03973388671875, 2.391357421875E-06
1.04171752929688, 2.4407958984375E-06
1.043701171875, 2.49267578125E-06
1.04568481445313, 2.54608154296875E-06
1.04766845703125, 2.60162353515625E-06
1.04965209960938, 2.65960693359375E-06
1.0516357421875, 2.7191162109375E-06
1.05361938476563, 2.77984619140625E-06
1.05560302734375, 2.841796875E-06
1.05758666992188, 2.90618896484375E-06
1.0595703125, 2.97149658203125E-06
1.06155395507813, 3.03802490234375E-06
1.06353759765625, 3.10546875E-06
1.06552124023438, 3.17474365234375E-06
1.0675048828125, 3.24462890625E-06
1.06948852539063, 3.3148193359375E-06
1.07147216796875, 3.38592529296875E-06
1.07345581054688, 3.458251953125E-06
1.075439453125, 3.5284423828125E-06
1.07742309570313, 3.60076904296875E-06
1.07940673828125, 3.671875E-06
1.08139038085938, 3.74359130859375E-06
1.0833740234375, 3.8140869140625E-06
1.08535766601563, 3.88427734375E-06
1.08734130859375, 3.95263671875E-06
1.08932495117188, 4.02008056640625E-06
1.09130859375, 4.0826416015625E-06
1.09329223632813, 4.1473388671875E-06
1.09527587890625, 4.21112060546875E-06
1.09725952148438, 4.27093505859375E-06
1.0992431640625, 4.327392578125E-06
1.10122680664063, 4.3841552734375E-06
1.10321044921875, 4.437255859375E-06
1.10519409179688, 4.48760986328125E-06
1.107177734375, 4.53399658203125E-06
1.10916137695313, 4.5782470703125E-06
1.11114501953125, 4.61883544921875E-06
1.11312866210938, 4.65576171875E-06
1.1151123046875, 4.68994140625E-06
1.11709594726563, 4.72259521484375E-06
1.11907958984375, 4.7515869140625E-06
1.12106323242188, 4.7784423828125E-06
1.123046875, 4.8004150390625E-06
1.12503051757813, 4.82086181640625E-06
1.12701416015625, 4.8358154296875E-06
1.12899780273438, 4.8486328125E-06
1.1309814453125, 4.857177734375E-06
1.13296508789063, 4.8651123046875E-06
1.13494873046875, 4.87060546875E-06
1.13693237304688, 4.87548828125E-06
1.138916015625, 4.87640380859375E-06
1.14089965820313, 4.8748779296875E-06
1.14288330078125, 4.87060546875E-06
1.14486694335938, 4.86358642578125E-06
1.1468505859375, 4.854736328125E-06
1.14883422851563, 4.84405517578125E-06
1.15081787109375, 4.83154296875E-06
1.15280151367188, 4.82086181640625E-06
1.15478515625, 4.80712890625E-06
1.15676879882813, 4.793701171875E-06
1.15875244140625, 4.77874755859375E-06
1.16073608398438, 4.7613525390625E-06
1.1627197265625, 4.74212646484375E-06
1.16470336914063, 4.7216796875E-06
1.16668701171875, 4.7003173828125E-06
1.16867065429688, 4.67926025390625E-06
1.170654296875, 4.65850830078125E-06
1.17263793945313, 4.63958740234375E-06
1.17462158203125, 4.62005615234375E-06
1.17660522460938, 4.6002197265625E-06
1.1785888671875, 4.5782470703125E-06
1.18057250976563, 4.55474853515625E-06
1.18255615234375, 4.53125E-06
1.18453979492188, 4.50775146484375E-06
1.1865234375, 4.4842529296875E-06
1.18850708007813, 4.4635009765625E-06
1.19049072265625, 4.44244384765625E-06
1.19247436523438, 4.42291259765625E-06
1.1944580078125, 4.4024658203125E-06
1.19644165039063, 4.3817138671875E-06
1.19842529296875, 4.359130859375E-06
1.20040893554688, 4.33685302734375E-06
1.202392578125, 4.31304931640625E-06
1.20437622070313, 4.2913818359375E-06
1.20635986328125, 4.2706298828125E-06
1.20834350585938, 4.251708984375E-06
1.2103271484375, 4.2333984375E-06
1.21231079101563, 4.217529296875E-06
1.21429443359375, 4.19891357421875E-06
1.21627807617188, 4.1790771484375E-06
1.21826171875, 4.1583251953125E-06
1.22024536132813, 4.1375732421875E-06
1.22222900390625, 4.11773681640625E-06
1.22421264648438, 4.09912109375E-06
1.2261962890625, 4.083251953125E-06
1.22817993164063, 4.06829833984375E-06
1.23016357421875, 4.0545654296875E-06
1.23214721679688, 4.04022216796875E-06
1.234130859375, 4.02374267578125E-06
1.23611450195313, 4.00543212890625E-06
1.23809814453125, 3.98651123046875E-06
1.24008178710938, 3.97003173828125E-06
1.2420654296875, 3.953857421875E-06
1.24404907226563, 3.93890380859375E-06
1.24603271484375, 3.927001953125E-06
1.24801635742188, 3.916015625E-06
1.25, 3.90472412109375E-06
1.25198364257813, 3.8922119140625E-06
1.25396728515625, 3.8763427734375E-06
1.25595092773438, 3.86077880859375E-06
1.2579345703125, 3.84552001953125E-06
1.25991821289063, 3.83209228515625E-06
1.26190185546875, 3.81988525390625E-06
1.26388549804688, 3.81011962890625E-06
1.265869140625, 3.80126953125E-06
1.26785278320313, 3.79241943359375E-06
1.26983642578125, 3.7823486328125E-06
1.27182006835938, 3.7701416015625E-06
1.2738037109375, 3.7567138671875E-06
1.27578735351563, 3.743896484375E-06
1.27777099609375, 3.7322998046875E-06
1.27975463867188, 3.7213134765625E-06
1.28173828125, 3.71246337890625E-06
1.28372192382813, 3.70513916015625E-06
1.28570556640625, 3.69842529296875E-06
1.28768920898438, 3.69110107421875E-06
1.2896728515625, 3.68255615234375E-06
1.29165649414063, 3.67156982421875E-06
1.29364013671875, 3.66058349609375E-06
1.29562377929688, 3.64990234375E-06
1.297607421875, 3.64044189453125E-06
1.29959106445313, 3.6328125E-06
1.30157470703125, 3.62640380859375E-06
1.29959106445313, 3.59283447265625E-06
1.297607421875, 3.56964111328125E-06
1.29562377929688, 3.54888916015625E-06
1.29364013671875, 3.5284423828125E-06
1.29165649414063, 3.50921630859375E-06
1.2896728515625, 3.4906005859375E-06
1.28768920898438, 3.47259521484375E-06
1.28570556640625, 3.4576416015625E-06
1.28372192382813, 3.44451904296875E-06
1.28173828125, 3.4326171875E-06
1.27975463867188, 3.42132568359375E-06
1.27777099609375, 3.40789794921875E-06
1.27578735351563, 3.39385986328125E-06
1.2738037109375, 3.3795166015625E-06
1.27182006835938, 3.3642578125E-06
1.26983642578125, 3.35052490234375E-06
1.26785278320313, 3.3380126953125E-06
1.265869140625, 3.32550048828125E-06
1.26388549804688, 3.3148193359375E-06
1.26190185546875, 3.3050537109375E-06
1.25991821289063, 3.2940673828125E-06
1.2579345703125, 3.2818603515625E-06
1.25595092773438, 3.26873779296875E-06
1.25396728515625, 3.25469970703125E-06
1.25198364257813, 3.24127197265625E-06
1.25, 3.22845458984375E-06
1.24801635742188, 3.216552734375E-06
1.24603271484375, 3.20556640625E-06
1.24404907226563, 3.19610595703125E-06
1.2420654296875, 3.1854248046875E-06
1.24008178710938, 3.1732177734375E-06
1.23809814453125, 3.16009521484375E-06
1.23611450195313, 3.14544677734375E-06
1.234130859375, 3.13140869140625E-06
1.23214721679688, 3.11859130859375E-06
1.23016357421875, 3.10516357421875E-06
1.22817993164063, 3.09326171875E-06
1.2261962890625, 3.0816650390625E-06
1.22421264648438, 3.07098388671875E-06
1.22222900390625, 3.05877685546875E-06
1.22024536132813, 3.04412841796875E-06
1.21826171875, 3.02825927734375E-06
1.21627807617188, 3.013916015625E-06
1.21429443359375, 2.99835205078125E-06
1.21231079101563, 2.9833984375E-06
1.2103271484375, 2.96905517578125E-06
1.20834350585938, 2.95623779296875E-06
1.20635986328125, 2.94189453125E-06
1.20437622070313, 2.92724609375E-06
1.202392578125, 2.91168212890625E-06
1.20040893554688, 2.89459228515625E-06
1.19842529296875, 2.87567138671875E-06
1.19644165039063, 2.857666015625E-06
1.1944580078125, 2.8399658203125E-06
1.19247436523438, 2.8216552734375E-06
1.19049072265625, 2.80487060546875E-06
1.18850708007813, 2.78778076171875E-06
1.1865234375, 2.77008056640625E-06
1.18453979492188, 2.75146484375E-06
1.18255615234375, 2.73040771484375E-06
1.18057250976563, 2.70904541015625E-06
1.1785888671875, 2.685546875E-06
1.17660522460938, 2.66387939453125E-06
1.17462158203125, 2.64129638671875E-06
1.17263793945313, 2.61871337890625E-06
1.170654296875, 2.596435546875E-06
1.16867065429688, 2.57537841796875E-06
1.16668701171875, 2.55126953125E-06
1.16470336914063, 2.5250244140625E-06
1.1627197265625, 2.49786376953125E-06
1.16073608398438, 2.470703125E-06
1.15875244140625, 2.44140625E-06
1.15676879882813, 2.41363525390625E-06
1.15478515625, 2.38525390625E-06
1.15280151367188, 2.35595703125E-06
1.15081787109375, 2.3272705078125E-06
1.14883422851563, 2.29583740234375E-06
1.1468505859375, 2.26470947265625E-06
1.14486694335938, 2.23114013671875E-06
1.14288330078125, 2.19635009765625E-06
1.14089965820313, 2.16156005859375E-06
1.138916015625, 2.125244140625E-06
1.13693237304688, 2.0904541015625E-06
1.13494873046875, 2.05352783203125E-06
1.13296508789063, 2.01690673828125E-06
1.1309814453125, 1.97906494140625E-06
1.12899780273438, 1.9415283203125E-06
1.12701416015625, 1.90155029296875E-06
1.12503051757813, 1.8603515625E-06
1.123046875, 1.81793212890625E-06
1.12106323242188, 1.77581787109375E-06
1.11907958984375, 1.7315673828125E-06
1.11709594726563, 1.68853759765625E-06
1.1151123046875, 1.64581298828125E-06
1.11312866210938, 1.60247802734375E-06
1.11114501953125, 1.5582275390625E-06
1.10916137695313, 1.51275634765625E-06
1.107177734375, 1.46636962890625E-06
1.10519409179688, 1.42059326171875E-06
1.10321044921875, 1.3739013671875E-06
1.10122680664063, 1.32659912109375E-06
1.0992431640625, 1.28021240234375E-06
1.09725952148438, 1.23321533203125E-06
1.09527587890625, 1.18621826171875E-06
1.09329223632813, 1.138916015625E-06
1.09130859375, 1.0931396484375E-06
1.08932495117188, 1.0467529296875E-06
1.08734130859375, 1.0009765625E-06
1.08535766601563, 9.552001953125E-07
1.0833740234375, 9.0850830078125E-07
1.08139038085938, 8.636474609375E-07
1.07940673828125, 8.1817626953125E-07
1.07742309570313, 7.757568359375E-07
1.075439453125, 7.318115234375E-07
1.07345581054688, 6.9000244140625E-07
1.07147216796875, 6.475830078125E-07
1.06948852539063, 6.0699462890625E-07
1.0675048828125, 5.670166015625E-07
1.06552124023438, 5.267333984375E-07
1.06353759765625, 4.8828125E-07
1.06155395507813, 4.50531005859375E-07
1.0595703125, 4.14459228515625E-07
1.05758666992188, 3.7982177734375E-07
1.05560302734375, 3.4674072265625E-07
1.05361938476563, 3.12103271484375E-07
1.0516357421875, 2.81280517578125E-07
1.04965209960938, 2.5048828125E-07
1.04766845703125, 2.21466064453125E-07
1.04568481445313, 1.9244384765625E-07
1.043701171875, 1.6595458984375E-07
1.04171752929688, 1.405029296875E-07
1.03973388671875, 1.1590576171875E-07
1.03775024414063, 9.3231201171875E-08
1.0357666015625, 7.1868896484375E-08
1.03378295898438, 5.2215576171875E-08
1.03179931640625, 3.26751708984375E-08
1.02981567382813, 1.47003173828125E-08
1.02783203125, -2.728271484375E-09
1.02584838867188, -1.87255859375E-08
1.02386474609375, -3.321533203125E-08
1.02188110351563, -4.669189453125E-08
1.0198974609375, -5.865478515625E-08
1.01791381835938, -6.9793701171875E-08
1.01593017578125, -7.9071044921875E-08
1.01394653320313, -8.7799072265625E-08
1.011962890625, -9.5367431640625E-08
1.00997924804688, -1.0296630859375E-07
1.00799560546875, -1.10015869140625E-07
1.00601196289063, -1.1614990234375E-07
1.0040283203125, -1.204833984375E-07
1.00204467773438, -1.24237060546875E-07
1.00006103515625, -1.2713623046875E-07
##END=$$ End of the data block
