sinacsa
Scan
1
(R)-(+)-Pulegon; 0.6 mg in 25 mL ethanol in volumetric flask, 0.5 cm path length
nm
200
1000
2
401
A
-0,0042
0,6738
0
Administrator/BERG-3

04,02,2009 10:15:10
04,02,2009 10:15:10
04,02,2009 09:09:49
0
04,02,2009 10:15:10, Administrator/BERG-3, Erzeugt|

1
999
0
sec
0
0

UV1
v4,60 v4,80
102408
2
0
0
0
0
0
0

0
0
0
 VISIONlite Scan Version 1,0



















2000
0
0
0
0
1
3
0
0
0
0
0
0
0
0
0
0
0
0
0
1
0
0
0
0
0
0
0
0
0
0
0
0
0
0
0
0
0
0
0
0
3
0
0
0
0
0
0
0
0
0
0
0
0
0
0
0
0
0
0
#SPECIFIC1
0
0
0,01

#SPECIFIC2

#SPECIFIC3

#DATA
0,1873
0,1973
0,1615
0,1285
0,1346
0,1069
0,0978
0,0972
0,0997
0,1089
0,1213
0,1388
0,1643
0,196
0,2331
0,2786
0,3237
0,3736
0,4108
0,4543
0,4974
0,5419
0,58
0,6184
0,646
0,6663
0,6738
0,6697
0,6509
0,6263
0,5941
0,5569
0,5132
0,4619
0,4064
0,3508
0,2918
0,2321
0,1821
0,1421
0,1122
0,086
0,0668
0,0477
0,0368
0,0282
0,0237
0,0192
0,0188
0,0174
0,014
0,014
0,0154
0,0118
0,011
0,0101
0,0115
0,0138
0,0093
0,0084
0,0098
0,0081
0,0081
0,0099
0,0133
0,0067
0,0096
0,0066
0,0039
0,0074
0,0063
0,0056
0,0029
0,0068
0,0047
0,0077
0,0021
-0,0024
-0,0001
0,0022
-0,0011
0,0007
0,0036
0,0033
0,0024
0,0002
0,003
0,0018
0,0012
0,002
0,0017
0,0039
0,0039
0,0016
0,0015
0,0022
0,0001
0,0015
0,0021
0,0021
0,0007
0,0021
0,0011
0,0008
0,0018
0,0018
0,0014
0,0008
0,0006
0,0004
0,0016
0,0004
0,0008
0,0009
0,0011
0,0003
0,0013
0,0011
0,0007
0,0016
0,0009
0,0008
0,0008
0,0024
0,0016
0,002
0,0015
0,0004
0,0013
0,0022
0,0015
0,001
0,001
0,0011
0,0008
0
0,0005
0,0008
-0,0003
0,0008
0,0016
0,0015
0,0008
0,0011
0,001
0,001
0,0011
0,0002
0,0014
0,0013
0,0012
0,0011
0,0009
0,0009
0,0009
0,0011
0,0008
0,0012
0,0008
0,0007
0,0009
0,0011
0,0013
0,0009
0,0011
0,0012
0,0016
0,0012
0,0008
0
0,0011
0,0022
0,0008
0,0015
0,0017
0,001
0,0009
0,0008
0,0012
0,0016
0,0009
0,001
0,0005
0,0006
0,0008
0,0012
0,0016
0,0014
0,0015
0,0006
0,0012
0,001
0,0016
0,0014
0,0011
0,0011
0,0013
0,0006
0,0011
0,0013
0,0014
0,0014
0,001
0,001
0,0012
0,0012
0,0012
0,0012
0,0013
0,0015
0,0012
0,0013
0,0015
0,0016
0,0014
0,0017
0,0014
0,0015
0,0014
0,0014
0,0017
0,0011
0,0013
0,0012
0,0012
0,0014
0,0013
0,0014
0,0011
0,0011
0,0012
0,001
0,0011
0,0013
0,0011
0,0012
0,0012
0,0012
0,0011
0,0012
0,001
0,0012
0,0013
0,0012
0,0011
0,0009
0,001
0,0011
0,0009
0,001
0,001
0,0013
0,0013
0,0011
0,0013
0,001
0,0008
0,0009
0,001
0,0011
0,0013
0,0009
0,0013
0,001
0,0009
0,0011
0,0008
0,0011
0,0009
0,0011
0,001
0,001
0,0013
0,0012
0,0007
0,001
0,0012
0,001
0,0011
0,0005
0,0008
0,0008
0,0009
0,0011
0,0009
0,0008
0,0011
0,0011
0,0013
0,001
0,0009
0,0011
0,0006
0,0013
0,001
0,0009
0,0009
0,0009
0,0006
0,0002
0,0006
0,0005
0,0007
0,0008
0,001
0,0016
0,0013
0,0013
0,0012
0,0014
0,0013
0,0017
0,0013
0,0009
0,0007
0,0008
0,0009
0,001
0,001
0,0008
0,0008
0,001
0,0009
0,0009
0,0005
0,0008
0,0013
0,0009
0,0008
0,0006
0,0016
0,0009
0,0011
0,0007
0,0011
0,001
0,001
0,0004
0,0004
0,0018
0,001
0,0006
0,0007
0,0006
0
0,001
0,001
0,0008
0,0007
0,0008
0,0007
0,0019
0,0012
0,0008
-0,0001
0,0011
0,001
0,0009
0,0011
-0,0001
0,0002
0,0003
0,0017
0,0015
0,0001
0,0006
0,0004
0,0001
0,0008
0,0008
0,0017
0,0011
0,0002
0,0002
-0,0003
0,0009
0
0,0002
0,0025
-0,0034
0,0017
0,0004
0,001
-0,0005
-0,0022
0,0007
0,0012
-0,0008
-0,0012
-0,0026
-0,0017
0,002
0,0007
0,0003
-0,001
0,0004
-0,0001
-0,0042
-0,0011
-0,003
-0,0022

