sinacsa
Scan
1
Carmins‰ure;d=1cm;1,1mg in Wasser (100ml Maﬂkolben) pH 2,1,dsp
nm
200
1000
2
401
A
0,0006
0,8204
0
Administrator/BERG-3

30,05,2011 15:29:05
30,05,2011 15:29:05
30,05,2011 11:13:21
0
30,05,2011 15:29:05, Administrator/BERG-3, Erzeugt|

1
999
0
sec
0
0

UV1
v4,60 v4,80
102408
2
0
0
0
0
0
0

0
0
0
 VISIONlite Scan Version 1,0



















2000
0
0
0
0
1
3
0
0
0
0
0
0
0
0
0
0
0
0
0
1
0
0
0
0
0
0
0
0
0
0
0
0
0
0
0
0
0
0
0
0
3
0
0
0
0
0
0
0
0
0
0
0
0
0
0
0
0
0
0
#SPECIFIC1
0
0
0,01

#SPECIFIC2

#SPECIFIC3

#DATA
0,8204
0,607
0,4907
0,429
0,3869
0,371
0,3665
0,3698
0,3783
0,3922
0,404
0,416
0,4223
0,4211
0,4117
0,3974
0,3834
0,3683
0,3557
0,3402
0,3228
0,3031
0,284
0,2657
0,2525
0,2481
0,2583
0,2699
0,2965
0,3255
0,3602
0,4003
0,4539
0,4987
0,5428
0,5917
0,6341
0,6608
0,6678
0,6371
0,5827
0,5282
0,4648
0,3985
0,3454
0,313
0,2872
0,2645
0,2506
0,2415
0,2376
0,2372
0,2359
0,2358
0,2366
0,2351
0,2328
0,2309
0,2243
0,2154
0,2061
0,1903
0,1797
0,1662
0,1673
0,1493
0,1382
0,1377
0,1258
0,1191
0,1144
0,1068
0,1017
0,0981
0,0955
0,0884
0,0899
0,0869
0,083
0,0775
0,0745
0,0744
0,0637
0,0573
0,0579
0,0548
0,0531
0,051
0,0501
0,0473
0,0471
0,0493
0,0434
0,0425
0,0442
0,0447
0,045
0,044
0,0454
0,0481
0,0468
0,0476
0,0507
0,0518
0,0544
0,0562
0,0579
0,0594
0,0615
0,0633
0,0666
0,0692
0,0724
0,0765
0,0781
0,0827
0,0867
0,0894
0,0922
0,097
0,0992
0,1031
0,107
0,1112
0,1153
0,1192
0,1227
0,127
0,1311
0,1342
0,138
0,1426
0,145
0,1489
0,1502
0,1542
0,1564
0,1578
0,159
0,1587
0,1595
0,1601
0,1613
0,1615
0,162
0,1627
0,1625
0,1625
0,1624
0,1608
0,1583
0,1552
0,1513
0,1461
0,1421
0,136
0,13
0,124
0,119
0,1144
0,1106
0,1072
0,1041
0,1006
0,0984
0,095
0,0911
0,0863
0,0806
0,0746
0,0683
0,0636
0,0584
0,0515
0,0458
0,0412
0,0355
0,0297
0,026
0,0223
0,0192
0,0165
0,0147
0,0128
0,0109
0,0098
0,0087
0,0082
0,006
0,0046
0,0039
0,0034
0,0037
0,0029
0,0026
0,0022
0,0021
0,0024
0,002
0,0024
0,0014
0,0015
0,0012
0,0013
0,0012
0,0013
0,001
0,0009
0,001
0,0013
0,0008
0,001
0,0006
0,001
0,001
0,0009
0,001
0,0007
0,0009
0,0009
0,0007
0,0008
0,0007
0,001
0,0009
0,0008
0,0008
0,0008
0,0007
0,0009
0,0009
0,0008
0,0011
0,0007
0,0006
0,0008
0,0008
0,0008
0,0008
0,0006
0,0006
0,001
0,0006
0,0008
0,0006
0,0008
0,0006
0,0009
0,001
0,001
0,0008
0,0006
0,0009
0,0008
0,0007
0,0011
0,0009
0,001
0,0009
0,0016
0,0019
0,0016
0,0017
0,0014
0,0014
0,0016
0,0017
0,0008
0,0012
0,001
0,0011
0,0013
0,0014
0,0012
0,0014
0,0015
0,0012
0,0014
0,0016
0,0015
0,0017
0,0015
0,0011
0,0013
0,0021
0,0011
0,0017
0,0016
0,0014
0,0013
0,0018
0,0015
0,0013
0,0016
0,0014
0,0016
0,0018
0,0016
0,0011
0,0015
0,001
0,0008
0,0014
0,0014
0,0021
0,0019
0,0023
0,0026
0,0012
0,0026
0,0028
0,0031
0,0027
0,003
0,0028
0,0029
0,0028
0,0036
0,0025
0,0027
0,0021
0,0016
0,0022
0,0022
0,0015
0,0026
0,0026
0,0029
0,0022
0,0022
0,0019
0,0025
0,0025
0,0024
0,0027
0,0028
0,0032
0,0027
0,0018
0,0033
0,0031
0,0029
0,0026
0,0033
0,0031
0,0023
0,003
0,0029
0,0035
0,0037
0,0031
0,0029
0,0039
0,0046
0,0045
0,0039
0,0045
0,0044
0,0045
0,0046
0,0052
0,0043
0,0045
0,005
0,0045
0,0043
0,0048
0,0044
0,0051
0,0042
0,0055
0,0057
0,0034
0,0052
0,005
0,0051
0,0057
0,0058
0,0076
0,0072
0,0066
0,0067
0,0077
0,0075
0,0079
0,0068
0,0084
0,0099
0,0069
0,0076
0,0081
0,0065
0,0065
0,0055
0,0049
0,0068
0,0067
0,0085
0,0078
0,006
0,0077

