sinacsa
Scan
1
Carmins‰ure;d=1cm;1,5mg in Wasser (100ml Maﬂkolben) pH 10,9,dsp
nm
200
1000
2
401
A
-0,0058
1,9249
0
Administrator/BERG-3

30,05,2011 15:56:49
30,05,2011 15:56:49
30,05,2011 11:13:21
0
30,05,2011 15:56:49, Administrator/BERG-3, Erzeugt|

1
999
0
sec
0
0

UV1
v4,60 v4,80
102408
2
0
0
0
0
0
0

0
0
0
 VISIONlite Scan Version 1,0



















2000
0
0
0
0
1
3
0
0
0
0
0
0
0
0
0
0
0
0
0
1
0
0
0
0
0
0
0
0
0
0
0
0
0
0
0
0
0
0
0
0
3
0
0
0
0
0
0
0
0
0
0
0
0
0
0
0
0
0
0
#SPECIFIC1
0
0
0,01

#SPECIFIC2

#SPECIFIC3

#DATA
1,9249
1,601
1,2672
1,054
0,8514
0,713
0,6227
0,5593
0,5019
0,4482
0,4169
0,397
0,3853
0,3829
0,3877
0,3953
0,4047
0,4142
0,4211
0,4272
0,4309
0,4335
0,4314
0,4249
0,4131
0,3977
0,38
0,3587
0,3408
0,3287
0,3251
0,3263
0,3297
0,3409
0,3542
0,3778
0,3947
0,4145
0,4359
0,4542
0,4701
0,483
0,5035
0,5273
0,5556
0,5789
0,6058
0,6416
0,6766
0,6994
0,7133
0,6991
0,6762
0,6403
0,5916
0,548
0,5233
0,5073
0,5038
0,5158
0,5294
0,5516
0,5772
0,6026
0,6272
0,6479
0,6671
0,6883
0,6974
0,6986
0,6914
0,674
0,6525
0,6248
0,6017
0,5722
0,5472
0,5152
0,4989
0,4648
0,4407
0,4092
0,3803
0,3522
0,3308
0,3081
0,2885
0,2658
0,2455
0,2303
0,2143
0,1979
0,1807
0,1715
0,1649
0,1603
0,1562
0,1509
0,1484
0,1478
0,1447
0,1426
0,1396
0,1375
0,1357
0,132
0,13
0,1283
0,126
0,123
0,1213
0,1204
0,1196
0,1182
0,1166
0,1152
0,1145
0,1152
0,1134
0,1145
0,1143
0,1144
0,1148
0,1164
0,1161
0,1163
0,1162
0,1166
0,1177
0,1174
0,1184
0,1193
0,1189
0,1195
0,1185
0,1196
0,1194
0,1188
0,1191
0,1196
0,1198
0,1208
0,1218
0,123
0,125
0,1273
0,1292
0,1316
0,1362
0,1391
0,1418
0,1448
0,149
0,1527
0,1562
0,1611
0,1665
0,1725
0,1795
0,1858
0,192
0,1971
0,2042
0,2099
0,2156
0,221
0,2264
0,2312
0,235
0,2374
0,2399
0,2412
0,244
0,2453
0,2466
0,2474
0,2496
0,2513
0,2535
0,2556
0,2572
0,2589
0,2602
0,2615
0,2617
0,2621
0,261
0,2594
0,2558
0,2514
0,2451
0,2399
0,2349
0,2312
0,2244
0,2172
0,2115
0,2037
0,1956
0,1867
0,1782
0,1684
0,1617
0,1546
0,1467
0,1393
0,1321
0,1243
0,1164
0,1081
0,1005
0,0933
0,087
0,0815
0,0755
0,0693
0,0648
0,0597
0,0546
0,049
0,0442
0,0402
0,0362
0,034
0,0312
0,0279
0,0254
0,0229
0,02
0,018
0,0157
0,0138
0,0124
0,0111
0,0099
0,0089
0,0079
0,0069
0,006
0,0052
0,0045
0,004
0,0032
0,0029
0,0026
0,0021
0,0016
0,0016
0,0011
0,0009
0,0008
0,0002
0,0004
0,0002
-0,0001
0,0002
-0,0002
-0,0003
-0,0006
0,0001
0,0001
-0,0001
-0,0001
-0,0004
-0,0008
-0,0008
-0,0007
-0,0015
-0,0013
-0,0015
-0,0015
-0,0013
-0,0012
-0,0015
-0,0015
-0,0013
-0,0012
-0,0014
-0,0009
-0,0012
-0,0009
-0,0011
-0,001
-0,0013
-0,0009
-0,0011
-0,001
-0,0011
-0,0012
-0,0008
-0,0003
-0,0006
-0,0013
-0,0004
-0,0003
-0,0005
-0,0001
0,0003
-0,0007
-0,0001
-0,0001
-0,0009
0
0
0,0004
-0,0006
-0,0001
0,0003
0,0007
0,0004
0,0007
0,0001
0,0007
0,0002
0,0002
-0,0003
0
-0,0007
-0,0005
-0,0005
0
-0,0008
-0,0007
-0,0008
-0,0005
0,0003
0,0006
0,0001
0
-0,0002
-0,0008
-0,0004
-0,0002
-0,0001
0
0,0001
-0,0001
0,0004
-0,0007
0,0003
0
0,0002
-0,0007
0,0003
0,0002
-0,0008
-0,0001
-0,0003
0,0001
0,0001
-0,0005
-0,0003
-0,0001
0,0007
0,0008
-0,0002
-0,0001
0,0004
0,0006
-0,0003
0,0004
0,0001
0,0003
-0,0002
-0,0011
-0,0011
-0,001
-0,0017
-0,0012
-0,0009
-0,0012
-0,0017
-0,0031
-0,0032
-0,0039
-0,0045
-0,0032
-0,0042
-0,0029
-0,0039
-0,0056
-0,0031
-0,0016
-0,0041
-0,003
-0,0025
-0,0013
0,0009
-0,0013
0,0003
-0,0001
-0,0033
-0,0018
-0,0026
0
0,0009
-0,0058
0,0021
0,0015
0,002
0,0051

