sinacsa
Scan
1
Carmins‰ure;d=0,5cm;1,7mg in Wasser (100ml Maﬂkolben),dsp
nm
200
1000
2
401
A
-0,0028
0,5126
0
Administrator/BERG-3

30,05,2011 11:45:54
30,05,2011 11:45:54
30,05,2011 11:13:21
0
30,05,2011 11:45:54, Administrator/BERG-3, Erzeugt|

1
999
0
sec
0
0

UV1
v4,60 v4,80
102408
2
0
0
0
0
0
0

0
0
0
 VISIONlite Scan Version 1,0



















2000
0
0
0
0
1
3
0
0
0
0
0
0
0
0
0
0
0
0
0
1
0
0
0
0
0
0
0
0
0
0
0
0
0
0
0
0
0
0
0
0
3
0
0
0
0
0
0
0
0
0
0
0
0
0
0
0
0
0
0
#SPECIFIC1
0
0
0,01

#SPECIFIC2

#SPECIFIC3

#DATA
0,3709
0,3487
0,3234
0,2963
0,277
0,2638
0,2576
0,2572
0,2595
0,2685
0,2763
0,2864
0,2941
0,2996
0,3007
0,2957
0,2868
0,2738
0,2623
0,2494
0,2347
0,2186
0,2021
0,1872
0,174
0,1655
0,1686
0,1758
0,1911
0,2073
0,2285
0,252
0,2864
0,3203
0,3588
0,4049
0,4458
0,478
0,5032
0,5126
0,5002
0,4778
0,4409
0,3925
0,3429
0,3068
0,2735
0,2437
0,2224
0,206
0,1956
0,1903
0,1871
0,1859
0,1847
0,1835
0,1811
0,1826
0,1816
0,1782
0,1727
0,1643
0,1565
0,1527
0,1501
0,1344
0,1247
0,1214
0,1077
0,1007
0,0962
0,0883
0,0833
0,0797
0,0765
0,0678
0,0703
0,0612
0,0633
0,0592
0,0572
0,0557
0,0532
0,0504
0,052
0,0469
0,0466
0,0443
0,0439
0,0412
0,0408
0,043
0,0376
0,0377
0,0386
0,0378
0,039
0,0375
0,0381
0,0407
0,0406
0,0421
0,0436
0,044
0,046
0,0477
0,0494
0,0512
0,0515
0,0536
0,0559
0,0578
0,06
0,062
0,0631
0,0675
0,0691
0,0716
0,0727
0,0757
0,078
0,0804
0,0838
0,0865
0,0889
0,0933
0,096
0,0981
0,1013
0,1041
0,1059
0,1098
0,1115
0,1146
0,1162
0,1186
0,1204
0,121
0,1223
0,1221
0,1228
0,1234
0,1241
0,125
0,1254
0,126
0,1262
0,125
0,1251
0,1233
0,1216
0,1191
0,1158
0,112
0,1091
0,1047
0,1004
0,0966
0,0927
0,0893
0,087
0,0846
0,0822
0,0799
0,0778
0,0748
0,0709
0,0676
0,062
0,0569
0,0518
0,0479
0,0443
0,039
0,0348
0,0317
0,0281
0,0242
0,0217
0,0191
0,0171
0,0155
0,014
0,0126
0,0115
0,0109
0,0096
0,0092
0,0079
0,0056
0,0058
0,0052
0,0063
0,0042
0,004
0,0033
0,0036
0,0034
0,0033
0,0029
0,0024
0,0021
0,0017
0,0015
0,0014
0,0013
0,0012
0,001
0,0008
0,001
0,0004
0,0006
0,0004
0,0005
0,0006
0,0002
0,0003
0,0003
0,0004
0,0001
0,0001
0,0003
0,0002
0,0003
0,0001
0
0,0001
0,0001
0
0,0002
0
0,0001
0,0002
-0,0001
-0,0001
0,0002
0,0001
0,0002
-0,0001
-0,0001
0
0,0002
0
0
-0,0002
0,0001
-0,0001
0,0001
-0,0002
-0,0003
0,0001
-0,0003
0
-0,0003
-0,0002
0,0001
0
0,0006
0,0002
0,0004
0,0005
0,0006
0,0005
0,0003
0,0002
0,0003
0,0002
-0,0004
-0,0002
-0,0001
-0,0003
0,0001
0
0
0,0002
0,0001
-0,0001
-0,0001
0,0001
-0,0002
0,0001
-0,0001
-0,0003
0,0001
0,0003
-0,0002
0,0002
0
-0,0004
0
0,0005
0,0001
-0,0003
0,0003
0,0002
-0,0001
0,0004
0
-0,0002
0,0001
0,0001
-0,0006
-0,0001
-0,0005
0,0003
-0,0002
0,0001
0,0008
-0,0004
-0,0001
0,0005
0,0006
-0,0001
0,0002
0,0002
0,0002
0,0002
0,0007
0,0001
0
0,0005
-0,0001
0,0001
0,0003
0
0,0011
0,0005
0,0003
0,0002
-0,0007
-0,0003
0
0,0002
-0,0002
0
0,0003
0,0007
0
-0,0002
0,0004
0,0002
0,0002
0,0003
0,0007
0,0001
0,0004
0
0,0004
0,0004
0,0002
-0,0001
-0,0004
0,0005
0,0008
0,0006
0
0
0,0005
0,0003
0
0
0,0002
0,0003
-0,0007
0,0003
-0,0001
0,0007
-0,0008
0,0004
0,0002
-0,0007
0,0015
0,0002
0
0
-0,0001
-0,0007
-0,0019
0,0004
-0,0028
-0,0001
0,0006
0,0012
0,0004
0,0012
0,0006
0,0012
0,0031
-0,0008
0,0003
0,0014
-0,0015
-0,0004
0,0012
0,0007
0,0019
-0,0026
0,0021
-0,0014
-0,0005
-0,0023

