##TITLE=Spectrum
##JCAMP-DX=5.00 $$ chemotion-converter-app (1.5.0)
##DATA TYPE=UV-VIS
##DATA CLASS=XYPOINTS
##ORIGIN=
##OWNER=
##XUNITS=wavelength (nm)
##YUNITS=ABSORBANCE
##FIRSTX=800
##LASTX=200
##MINX=200.0
##MAXX=800.0
##MINY=-1.498323321
##MAXY=10.0
##NPOINTS=601
##FIRSTY=-0.001422947738
##XUNITS=wavelength (nm)
##YUNITS=ABSORBANCE
##XYPOINTS=(XY..XY)
800, -0.001422947738
799, -0.0006592291757
798, -0.0004054438032
797, -0.001108470955
796, -0.0006755639915
795, -0.00138728891
794, -0.0003371115308
793, -0.0008236864815
792, -0.0008340211352
791, -0.001054916997
790, -0.0008896173094
789, -0.0006545250653
788, -0.0008693120908
787, -0.001592068118
786, -0.001974796178
785, -0.001319472212
784, -0.001688516699
783, -0.001010343898
782, -0.001492399257
781, -0.001235331874
780, -0.0009029986104
779, -0.001056982903
778, -6.973119889E-05
777, -0.001155822189
776, -0.001620901749
775, -0.001178953797
774, -0.0004525097611
773, -0.001366181183
772, -0.00105775753
771, -0.001084922464
770, -0.001408447162
769, -0.00152629544
768, -0.0009690723382
767, -0.001295728725
766, -0.001714301412
765, -0.001161708497
764, -0.001287521445
763, -0.00136096857
762, -0.001248960616
761, -0.001437447849
760, -0.001275029499
759, -0.001170641044
758, -0.001230530674
757, -0.001590984873
756, -0.001381921815
755, -0.001163412468
754, -0.001638541464
753, -0.001124840579
752, -0.001613577479
751, -0.001493018353
750, -0.001171880169
749, -0.001006779959
748, -0.0008294738946
747, -0.001594853587
746, -0.0016520028
745, -0.002008036477
744, -0.001203219988
743, -0.001390488469
742, -0.001747458358
741, -0.001330104773
740, -0.001501840889
739, -0.001402512658
738, -0.001852945541
737, -0.001442040317
736, -0.001550026354
735, -0.001648856676
734, -0.001208847505
733, -0.001172344899
732, -0.001504317392
731, -0.001860523596
730, -0.00136349746
729, -0.001403906033
728, -0.001636994071
727, -0.001698521315
726, -0.00187866902
725, -0.001417013467
724, -0.001707339659
723, -0.001145495218
722, -0.001550645335
721, -0.001858616248
720, -0.001413607621
719, -0.001770300674
718, -0.001465879031
717, -0.001797781908
716, -0.002077806508
715, -0.00188995793
714, -0.001602642355
713, -0.001348840073
712, -0.00181825005
711, -0.001869338681
710, -0.002050291514
709, -0.001745963003
708, -0.00165772764
707, -0.001818456221
706, -0.001572827343
705, -0.001507155015
704, -0.001499106525
703, -0.001590881729
702, -0.001957427943
701, -0.002043644199
700, -0.00182505534
699, -0.001584485406
698, -0.00164591684
697, -0.001401841757
696, -0.002234671498
695, -0.001787779504
694, -0.001019847696
693, -0.001275597373
692, -0.002227409044
691, -0.002120621735
690, -0.001824746025
689, -0.001618374372
688, -0.00200386229
687, -0.001715281163
686, -0.001901504351
685, -0.001649681944
684, -0.001517473371
683, -0.001723274123
682, -0.001795822755
681, -0.001930111321
680, -0.001839541947
679, -0.001936347922
678, -0.001795204007
677, -0.001933770836
676, -0.001883772318
675, -0.002025969559
674, -0.001583195874
673, -0.001525160391
672, -0.002288492164
671, -0.001981753623
670, -0.001831499627
669, -0.001620231196
668, -0.001606149832
667, -0.001865008497
666, -0.002002419205
665, -0.00167557213
664, -0.001425424707
663, -0.001638180343
662, -0.001668197219
661, -0.00216394756
660, -0.001946965349
659, -0.001544919098
658, -0.001800359809
657, -0.002274174942
656, -0.001847687294
655, -0.002012158977
654, -0.00213870476
653, -0.001785304747
652, -0.002264492447
651, -0.002097643213
650, -0.002256870037
649, -0.001741992543
648, -0.001820621546
647, -0.001886762097
646, -0.002332110191
645, -0.001886607381
644, -0.001793863485
643, -0.001934183179
642, -0.002275874373
641, -0.002056732541
640, -0.001794739976
639, -0.001854440547
638, -0.001752769458
637, -0.001968302531
636, -0.002061266918
635, -0.002294826554
634, -0.001567668864
633, -0.001820466947
632, -0.002057917649
631, -0.002071984345
630, -0.002094603376
629, -0.001569835469
628, -0.002224988071
627, -0.002037718426
626, -0.002013447229
625, -0.00194557372
624, -0.002096458105
623, -0.001750603784
622, -0.00189913332
621, -0.0019181018
620, -0.002112945076
619, -0.001646690536
618, -0.001836861251
617, -0.002219682792
616, -0.002368567046
615, -0.00188717444
614, -0.001697232015
613, -0.002007572679
612, -0.001932585379
611, -0.002267479664
610, -0.001833458664
609, -0.001718684682
608, -0.001871349057
607, -0.001880267053
606, -0.002052146476
605, -0.001705998904
604, -0.001728172996
603, -0.001935987151
602, -0.002097076504
601, -0.002558370354
600, -0.002212729305
599, -0.001980516827
598, -0.001966550248
597, -0.002202581847
596, -0.002217107452
595, -0.0021925373
594, -0.001726161921
593, -0.001926812576
592, -0.002162144519
591, -0.002117994241
590, -0.001924287062
589, -0.001792832394
588, -0.001859183307
587, -0.001981959911
586, -0.002114954405
585, -0.002261093352
584, -0.002048642607
583, -0.002209329512
582, -0.002135459101
581, -0.002155705122
580, -0.001954180887
579, -0.002044211142
578, -0.001721211476
577, -0.002270569792
576, -0.002172086854
575, -0.002257127548
574, -0.002028391464
573, -0.002166420221
572, -0.002121652011
571, -0.002515392611
570, -0.001909596962
569, -0.00185217231
568, -0.001901401323
567, -0.001948202378
566, -0.002392612398
565, -0.002165699145
564, -0.001787779504
563, -0.001731524826
562, -0.001996750478
561, -0.00201447797
560, -0.001947790035
559, -0.001878205105
558, -0.001919390401
557, -0.00199242169
556, -0.002255942905
555, -0.00184624386
554, -0.001937172608
553, -0.002160238568
552, -0.00218027737
551, -0.002397658071
550, -0.001959541114
549, -0.001971291844
548, -0.001577831106
547, -0.002076312434
546, -0.002385970438
545, -0.002176620066
544, -0.001918462571
543, -0.002167862607
542, -0.002210359788
541, -0.002298895037
540, -0.00213855016
539, -0.002050549025
538, -0.001871967688
537, -0.002010767581
536, -0.00218223501
535, -0.001857688301
534, -0.002063791733
533, -0.001719767577
532, -0.002331080381
531, -0.002147359541
530, -0.002024990506
529, -0.002093882067
528, -0.002067965223
527, -0.001745292684
526, -0.002368515357
525, -0.002061112318
524, -0.002103310777
523, -0.001936811837
522, -0.002327784663
521, -0.002176310867
520, -0.001891865279
519, -0.002321553649
518, -0.001976393862
517, -0.002269745804
516, -0.002353531541
515, -0.002252080245
514, -0.002312284429
513, -0.001832530717
512, -0.002541385591
511, -0.002344571752
510, -0.002113305731
509, -0.002097282559
508, -0.002229469363
507, -0.002411147347
506, -0.00253670197
505, -0.002365889493
504, -0.002169202082
503, -0.002249144483
502, -0.00236501405
501, -0.002479102695
500, -0.00213731383
499, -0.00214303215
498, -0.002130204113
497, -0.002405586885
496, -0.002665255917
495, -0.002589507261
494, -0.002310739364
493, -0.002160341479
492, -0.002848037751
491, -0.002545606112
490, -0.002342151711
489, -0.002425614512
488, -0.002530525438
487, -0.002744181082
486, -0.002653524047
485, -0.002432513284
484, -0.002195937093
483, -0.002682493068
482, -0.002544473857
481, -0.002698649187
480, -0.002866604831
479, -0.002516525099
478, -0.002135819755
477, -0.002950327005
476, -0.002741145669
475, -0.002536444459
474, -0.002446567873
473, -0.002475859597
472, -0.002377577592
471, -0.002953720745
470, -0.002688358771
469, -0.002463813638
468, -0.002658412326
467, -0.002900959691
466, -0.002827618271
465, -0.002585338661
464, -0.002471741289
463, -0.002716965275
462, -0.002653884236
461, -0.00278343237
460, -0.002450892236
459, -0.002134583192
458, -0.002688307315
457, -0.002810078207
456, -0.003175031859
455, -0.002651054179
454, -0.002339937491
453, -0.003032593522
452, -0.003018455114
451, -0.00278991391
450, -0.002613025717
449, -0.002420002827
448, -0.003186903894
447, -0.003045703284
446, -0.002818153938
445, -0.002518172143
444, -0.002121188445
443, -0.002689439338
442, -0.002995061455
441, -0.002686712192
440, -0.002649047179
439, -0.002196967136
438, -0.002576280851
437, -0.00259310985
436, -0.002710379893
435, -0.002533459337
434, -0.002790428465
433, -0.002264801413
432, -0.002854672726
431, -0.002807197627
430, -0.002051270567
429, -0.002323768102
428, -0.002535260748
427, -0.002538554836
426, -0.002268097596
425, -0.00249408232
424, -0.001939388807
423, -0.002371913753
422, -0.001994122285
421, -0.002460261574
420, -0.002517554443
419, -0.002217622474
418, -0.002098003868
417, -0.002034317469
416, -0.002191455569
415, -0.002005974995
414, -0.001733123325
413, -0.001848408952
412, -0.001713527832
411, -0.001219586004
410, -0.001169814961
409, -0.00111094967
408, -0.0008349512354
407, -0.0007496832404
406, -0.0007861179765
405, -0.0004160470271
404, -0.000318332488
403, -3.038906289E-05
402, -0.0001279096177
401, -8.106728637E-05
400, 0.0003603268124
399, 0.001434325939
398, 0.001019887161
397, 0.001168951276
396, 0.001731464756
395, 0.002395897405
394, 0.002677520271
393, 0.002621602966
392, 0.003747115145
391, 0.003449429525
390, 0.004571415018
389, 0.004864897579
388, 0.005177046172
387, 0.005957587622
386, 0.006149207242
385, 0.007028881926
384, 0.007547992747
383, 0.008229358122
382, 0.008456612006
381, 0.008955023251
380, 0.009835692123
379, 0.01104305964
378, 0.01111781131
377, 0.01164388284
376, 0.01178546809
375, 0.01215275656
374, 0.01315476466
373, 0.01399496756
372, 0.01390349399
371, 0.01524455938
370, 0.01557569113
369, 0.0152541576
368, 0.01731299423
367, 0.01729292423
366, 0.01795744151
365, 0.01814301498
364, 0.01892314106
363, 0.01970252953
362, 0.01910734177
361, 0.02102274261
360, 0.02109985612
359, 0.02119883895
358, 0.0211760886
357, 0.02149874717
356, 0.02131872252
355, 0.02143991739
354, 0.023393685
353, 0.02285903506
352, 0.02442933619
351, 0.02443708666
350, 0.02288037166
349, 0.0290878173
348, 0.02764577977
347, 0.02758953348
346, 0.02913335338
345, 0.02901073918
344, 0.02850390412
343, 0.03087802418
342, 0.03162550554
341, 0.03369172662
340, 0.03355612978
339, 0.03562753648
338, 0.03751057014
337, 0.03930507228
336, 0.04146645591
335, 0.04690657556
334, 0.05185708031
333, 0.05764571577
332, 0.06192675233
331, 0.0711824894
330, 0.07933501154
329, 0.08982367069
328, 0.1005331278
327, 0.1125772148
326, 0.1239202693
325, 0.1373554021
324, 0.15105322
323, 0.1656824946
322, 0.1796589792
321, 0.1954120994
320, 0.2093778253
319, 0.2268347591
318, 0.2426556349
317, 0.259713918
316, 0.2747386694
315, 0.2907479703
314, 0.3069949448
313, 0.3208645582
312, 0.3333284259
311, 0.3465174139
310, 0.3573874533
309, 0.3668279648
308, 0.3775900304
307, 0.3834626973
306, 0.3910022676
305, 0.3962996006
304, 0.4007811546
303, 0.4038443565
302, 0.4070102572
301, 0.4083600342
300, 0.4092655182
299, 0.4107277989
298, 0.4106041789
297, 0.4103493094
296, 0.4087962806
295, 0.4063622952
294, 0.4026156068
293, 0.398496449
292, 0.3937058151
291, 0.3898616731
290, 0.3851154745
289, 0.3809200823
288, 0.3775844574
287, 0.3731795847
286, 0.3698252141
285, 0.3703319728
284, 0.3704863787
283, 0.372322619
282, 0.3740460873
281, 0.3747972548
280, 0.377327621
279, 0.3745624423
278, 0.3706040382
277, 0.3661227226
276, 0.3588273823
275, 0.3524529338
274, 0.3452910185
273, 0.3371454477
272, 0.3305245638
271, 0.3227425218
270, 0.3178489506
269, 0.3075936735
268, 0.301608026
267, 0.2921357453
266, 0.2893713117
265, 0.2839167416
264, 0.2890656888
263, 0.3045535684
262, 0.3132317066
261, 0.3133877516
260, 0.3347299993
259, 0.3615790009
258, 0.3233812451
257, 0.3685887158
256, 0.3516609371
255, 0.390013665
254, 0.4420249164
253, 0.3160578907
252, 10
251, 10
250, -1.498323321
249, 10
248, -0.274954468
247, -0.1796417832
246, -0.2842113674
245, 0.07588448375
244, 0.06671457738
243, -0.0670922175
242, -0.05385286361
241, -0.1000921205
240, -0.06331910938
239, 0.04421559721
238, -0.0132106645
237, -0.08333770931
236, -0.1094417721
235, 0.04960713163
234, 0.2180714905
233, 0.09494543821
232, 0.1006674841
231, 0.07095964998
230, 0.05746679381
229, 0.107201457
228, 0.009433398955
227, -0.09098908305
226, -0.1798142642
225, 0.003955525346
224, 0.08585206419
223, 0.2491373271
222, -0.02675980888
221, -0.1434352547
220, 0.05300631002
219, 0.05373427644
218, -0.03487512842
217, 0.08429410309
216, -0.03182226792
215, 0.1875674427
214, 0.02410268784
213, 0.04300687462
212, 0.001264764462
211, 0.02745808847
210, -0.003408455756
209, 0.08001127839
208, 0.1321748644
207, -0.1080198362
206, -0.09381468594
205, -0.007531485055
204, 0.2897553742
203, 0.07683002949
202, -0.021331653
201, 0.1903122962
200, 0.0260121543
##END=$$ End of the data block
