##TITLE=Spectrum
##JCAMP-DX=5.00 $$ chemotion-converter-app (1.1.0)
##DATA TYPE=UV-VIS
##DATA CLASS=XYPOINTS
##ORIGIN=
##OWNER=
##XUNITS=wavelength (nm)
##YUNITS=ABSORBANCE
##FIRSTX=800
##LASTX=200
##MINX=200.0
##MAXX=800.0
##MINY=-0.01267638803
##MAXY=10.0
##NPOINTS=601
##FIRSTY=0.02022929303
##XUNITS=wavelength (nm)
##YUNITS=ABSORBANCE
##XYPOINTS=(XY..XY)
800, 0.02022929303
799, 0.02123860642
798, 0.02075253986
797, 0.02124768496
796, 0.02095827274
795, 0.02084152959
794, 0.02113042958
793, 0.02119810507
792, 0.02096161433
791, 0.02130754851
790, 0.02073149756
789, 0.02078319713
788, 0.02100510895
787, 0.02113510296
786, 0.02113744058
785, 0.02075150795
784, 0.02108007483
783, 0.02096723765
782, 0.02114483342
781, 0.02078319713
780, 0.02068819292
779, 0.02078659087
778, 0.01984243095
777, 0.02075894922
776, 0.02071887255
775, 0.02051602118
774, 0.02030208893
773, 0.02050310373
772, 0.02003781125
771, 0.02053026855
770, 0.02062198147
769, 0.02040118724
768, 0.02056804858
767, 0.02087794989
766, 0.02080117352
765, 0.02041917667
764, 0.02073225752
763, 0.02058824152
762, 0.02070179395
761, 0.02070649154
760, 0.02086931281
759, 0.02090375498
758, 0.02132051624
757, 0.02139387839
756, 0.02128574438
755, 0.02106064558
754, 0.02142515033
753, 0.02110993862
752, 0.02168265544
751, 0.02126576193
750, 0.02109847032
749, 0.02114616521
748, 0.02123640291
747, 0.02158952132
746, 0.02127239667
745, 0.02135822922
744, 0.02099081874
743, 0.02100983635
742, 0.02115477994
741, 0.02086901478
740, 0.02087442018
739, 0.02063919231
738, 0.02100788057
737, 0.0204785727
736, 0.02046191134
735, 0.0202598311
734, 0.01989530027
733, 0.01981260069
732, 0.01981146261
731, 0.01972601563
730, 0.01923187077
729, 0.01906127669
728, 0.01894498803
727, 0.01852817461
726, 0.01836425625
725, 0.01787780784
724, 0.01770302653
723, 0.01707580872
722, 0.01672663726
721, 0.01660497487
720, 0.01600222103
719, 0.01588009112
718, 0.01609738916
717, 0.01560716517
716, 0.01534200087
715, 0.0148662366
714, 0.01448238268
713, 0.01434430387
712, 0.01445374638
711, 0.01433772128
710, 0.01412857603
709, 0.01401950978
708, 0.01391755324
707, 0.01406429335
706, 0.01342422981
705, 0.01334181894
704, 0.01341451146
703, 0.0134271672
702, 0.01372322347
701, 0.01400250569
700, 0.01388457138
699, 0.01363300998
698, 0.01370767504
697, 0.01346977986
696, 0.0137152886
695, 0.01366362255
694, 0.01339414157
693, 0.01373388432
692, 0.01407988183
691, 0.01404416002
690, 0.01393246837
689, 0.01376680098
688, 0.0140702026
687, 0.01401360054
686, 0.01413301565
685, 0.01396326255
684, 0.01371424645
683, 0.01419784315
682, 0.01399895083
681, 0.01411959063
680, 0.0139874015
679, 0.01404472161
678, 0.01396914292
677, 0.01422726549
676, 0.01409536414
675, 0.01398553047
674, 0.01383488812
673, 0.01390499063
672, 0.01505362894
671, 0.01484721806
670, 0.01485552173
669, 0.01427033171
668, 0.01417492237
667, 0.01415598765
666, 0.01412451174
665, 0.01396574825
664, 0.01378352847
663, 0.01396860834
662, 0.01376535837
661, 0.01410843991
660, 0.01387115382
659, 0.01369661465
658, 0.01402357314
657, 0.01417770423
656, 0.01388106961
655, 0.01375549939
654, 0.01392434258
653, 0.01352318656
652, 0.01400044747
651, 0.01380410325
650, 0.01385233924
649, 0.0135605745
648, 0.01361594163
647, 0.01357585099
646, 0.01389173418
645, 0.0132999653
644, 0.01347359829
643, 0.01349789742
642, 0.0137010226
641, 0.01334889326
640, 0.01328162942
639, 0.01315513812
638, 0.01321982034
637, 0.01329590846
636, 0.01304143388
635, 0.01321792509
634, 0.01281054225
633, 0.0129228523
632, 0.0128630409
631, 0.01278417557
630, 0.01263786759
629, 0.01230446622
628, 0.01254372206
627, 0.01237762533
626, 0.01232723612
625, 0.01218400989
624, 0.01227019541
623, 0.01192856207
622, 0.01204934716
621, 0.01205432415
620, 0.0118541494
619, 0.01163202431
618, 0.01184555702
617, 0.01184396073
616, 0.01201203652
615, 0.01158826146
614, 0.01145359781
613, 0.01197193377
612, 0.01164555829
611, 0.01179900672
610, 0.01153549179
609, 0.0115465764
608, 0.01161072683
607, 0.01171474904
606, 0.01173480134
605, 0.01159918867
604, 0.01163558755
603, 0.01185649075
602, 0.01196658518
601, 0.01210343093
600, 0.01183893345
599, 0.01180581562
598, 0.01190895401
597, 0.01203934103
596, 0.01184356213
595, 0.01185399015
594, 0.0114571061
593, 0.01153698005
592, 0.01134674158
591, 0.01128154062
590, 0.01081500575
589, 0.01055967249
588, 0.01056526881
587, 0.01039390825
586, 0.01013482176
585, 0.01010472141
584, 0.009815542027
583, 0.009968768805
582, 0.009542881511
581, 0.009471389465
580, 0.009163965471
579, 0.009160898626
578, 0.008822256699
577, 0.009211318567
576, 0.009056005627
575, 0.009005762637
574, 0.008980947547
573, 0.009061477147
572, 0.008907275274
571, 0.009185460396
570, 0.008733900264
569, 0.00858525373
568, 0.009477421641
567, 0.009615946561
566, 0.009789939038
565, 0.009496867657
564, 0.00927824527
563, 0.009398321621
562, 0.009626665153
561, 0.009556376375
560, 0.00955283083
559, 0.009319448844
558, 0.009367373772
557, 0.009402818978
556, 0.009591439739
555, 0.009324447252
554, 0.009308605455
553, 0.009281974286
552, 0.009203333408
551, 0.009413876571
550, 0.009034729563
549, 0.008932244964
548, 0.008828860708
547, 0.009019320831
546, 0.008837393485
545, 0.008700912818
544, 0.008568488061
543, 0.008592197672
542, 0.00852094125
541, 0.008414170705
540, 0.008328641765
539, 0.00815146137
538, 0.007958666421
537, 0.008000983857
536, 0.007932433859
535, 0.007659819443
534, 0.007683005184
533, 0.007522628177
532, 0.007837510668
531, 0.007443725597
530, 0.007447333541
529, 0.007332349662
528, 0.007211315911
527, 0.007129865233
526, 0.007207525894
525, 0.007275487296
524, 0.007031434216
523, 0.007130049635
522, 0.00717654964
521, 0.006945939735
520, 0.006872559898
519, 0.007123470772
518, 0.007133022882
517, 0.006953567732
516, 0.007003179751
515, 0.00696437899
514, 0.006870823912
513, 0.006787885912
512, 0.007003916427
511, 0.006943177897
510, 0.006747000851
509, 0.00674547581
508, 0.006889759563
507, 0.007035406772
506, 0.006779550575
505, 0.00694409851
504, 0.006991078611
503, 0.006883474067
502, 0.007032196969
501, 0.006947044749
500, 0.007017543539
499, 0.006923924666
498, 0.007045351434
497, 0.007176917978
496, 0.007134785876
495, 0.007088790182
494, 0.006985317916
493, 0.007009493187
492, 0.007418735884
491, 0.007051902357
490, 0.007119181566
489, 0.007088106126
488, 0.007080660202
487, 0.007066320628
486, 0.007028961089
485, 0.006626998074
484, 0.006325283553
483, 0.006705199834
482, 0.006435640156
481, 0.006266163196
480, 0.006097094156
479, 0.005993936211
478, 0.005587894935
477, 0.006084572058
476, 0.005661373027
475, 0.005294055212
474, 0.005324059166
473, 0.005382972304
472, 0.005232481286
471, 0.00548941968
470, 0.005334017333
469, 0.005262507126
468, 0.005123949144
467, 0.005469286814
466, 0.005173483398
465, 0.005160961766
464, 0.005129554775
463, 0.005397335161
462, 0.005047393497
461, 0.005215504207
460, 0.005011726171
459, 0.004872515332
458, 0.005199654028
457, 0.005202929024
456, 0.005384335294
455, 0.005178749096
454, 0.004929796327
453, 0.005373825785
452, 0.005295941606
451, 0.005069732666
450, 0.005058025941
449, 0.005047053099
448, 0.005314887036
447, 0.005186424591
446, 0.004998292774
445, 0.004921261221
444, 0.00488212239
443, 0.005139717832
442, 0.005185665097
441, 0.00510427868
440, 0.004985644948
439, 0.004698911216
438, 0.004772108048
437, 0.00511852745
436, 0.005500875879
435, 0.005095871165
434, 0.005063918885
433, 0.004721625242
432, 0.004962184001
431, 0.004849819466
430, 0.004198927432
429, 0.004421283491
428, 0.00456516305
427, 0.004710267764
426, 0.004387079272
425, 0.004595640115
424, 0.004185101017
423, 0.004477720708
422, 0.003965504002
421, 0.003998838831
420, 0.003912921064
419, 0.003765183734
418, 0.00385169941
417, 0.003591682296
416, 0.003531262977
415, 0.003555534175
414, 0.003506158013
413, 0.00351020298
412, 0.003309153253
411, 0.003025713144
410, 0.002980228746
409, 0.003120920155
408, 0.002804018324
407, 0.002865457209
406, 0.002620196668
405, 0.002187557751
404, 0.002222239505
403, 0.002234312473
402, 0.002232829342
401, 0.002148820786
400, 0.001874767826
399, 0.001872688066
398, 0.001898998627
397, 0.001911790576
396, 0.001693521976
395, 0.001074352884
394, 0.001130668214
393, 0.001435962156
392, 0.0009179539629
391, 0.001037323731
390, 0.0001696897816
389, 0.0002378795325
388, 0.0002580562141
387, -0.0001220093181
386, -0.0001479389903
385, -0.0005838019424
384, -0.0005846809363
383, -0.0007268906338
382, -0.000734746689
381, -0.00109148107
380, -0.001419077511
379, -0.00168258592
378, -0.00146237039
377, -0.001912431908
376, -0.002151841531
375, -0.002614363795
374, -0.002690262394
373, -0.003400853369
372, -0.003160538385
371, -0.003803084837
370, -0.00373985339
369, -0.002993775997
368, 0.0005613114918
367, -0.005052685738
366, -0.005172158591
365, -0.004744616803
364, -0.005485701375
363, -0.006201944314
362, -0.004450524226
361, -0.007430116646
360, -0.006942331791
359, -0.007663961034
358, -0.007648904342
357, -0.006580021232
356, -0.00930222217
355, -0.008921132423
354, -0.009678117
353, -0.007694276515
352, -0.01034992654
351, -0.01267638803
350, -0.0107531501
349, -0.01266723685
348, 0.001778715989
347, 0.002976110671
346, 0.002812850522
345, 0.003019665601
344, 0.003978017718
343, 0.003375072498
342, 0.003837205004
341, 0.002949083224
340, 0.00444066152
339, 0.00396871753
338, 0.004079678562
337, 0.005616293754
336, 0.006082445849
335, 0.005372987129
334, 0.005555513315
333, 0.005806319881
332, 0.007694756147
331, 0.007905808277
330, 0.008940859698
329, 0.008907143027
328, 0.008958431892
327, 0.0102498075
326, 0.01059099752
325, 0.01188455708
324, 0.01216478925
323, 0.01293093339
322, 0.01364770159
321, 0.01408424042
320, 0.01677705534
319, 0.01661137491
318, 0.01861433126
317, 0.01897962764
316, 0.02098473348
315, 0.02257528156
314, 0.02353079058
313, 0.02526649833
312, 0.02710105106
311, 0.0290590059
310, 0.03131073341
309, 0.03356625512
308, 0.03572299704
307, 0.03879288211
306, 0.04079156369
305, 0.04370517284
304, 0.04659292474
303, 0.05010920763
302, 0.05309812352
301, 0.05610065535
300, 0.0597942099
299, 0.0630364418
298, 0.06726893038
297, 0.07158470899
296, 0.07531601936
295, 0.07953403145
294, 0.08397588134
293, 0.08875064552
292, 0.0936416164
291, 0.09873523563
290, 0.1039877757
289, 0.1096851677
288, 0.1151873469
287, 0.1220534295
286, 0.1287208796
285, 0.1351383626
284, 0.1427808553
283, 0.1523378193
282, 0.1633757055
281, 0.1782348007
280, 0.1969316006
279, 0.2237460017
278, 0.2549698651
277, 0.2908349037
276, 0.324378401
275, 0.355266571
274, 0.3871218562
273, 0.4304619431
272, 0.4862865508
271, 0.5649391413
270, 0.6700409055
269, 0.8210339546
268, 1.018355846
267, 1.285191536
266, 1.618424296
265, 2.030091524
264, 2.448818922
263, 2.783688068
262, 2.985904932
261, 3.141760349
260, 3.285504103
259, 3.423638105
258, 3.58566308
257, 3.728757381
256, 3.886280298
255, 4.063235283
254, 4.266150951
253, 4.496175289
252, 4.912382603
251, 5.824010372
250, 10
249, 6.227351189
248, 10
247, 10
246, 10
245, 10
244, 10
243, 10
242, 10
241, 10
240, 10
239, 10
238, 10
237, 10
236, 10
235, 10
234, 10
233, 10
232, 10
231, 10
230, 10
229, 10
228, 10
227, 10
226, 10
225, 10
224, 10
223, 10
222, 10
221, 10
220, 10
219, 10
218, 10
217, 10
216, 10
215, 10
214, 10
213, 10
212, 10
211, 10
210, 10
209, 10
208, 10
207, 10
206, 10
205, 10
204, 10
203, 10
202, 10
201, 10
200, 10
##END=$$ End of the data block
