##TITLE=Spectrum
##JCAMP-DX=5.00 $$ chemotion-converter-app (1.1.0)
##DATA TYPE=THERMOGRAVIMETRIC ANALYSIS
##DATA CLASS=XYPOINTS
##ORIGIN=
##OWNER=
##XUNITS=DEGREES CELSIUS
##YUNITS=Weight %
##FIRSTX=29.79
##LASTX=29.69
##MINX=29.69
##MAXX=30.16
##MINY=100.04
##MAXY=100.04
##NPOINTS=1800
##FIRSTY=100.04
##XUNITS=DEGREES CELSIUS
##YUNITS=Weight %
##XYPOINTS=(XY..XY)
29.79, 100.04
29.79, 100.04
29.79, 100.04
29.79, 100.04
29.8, 100.04
29.8, 100.04
29.8, 100.04
29.8, 100.04
29.8, 100.04
29.8, 100.04
29.8, 100.04
29.8, 100.04
29.8, 100.04
29.8, 100.04
29.8, 100.04
29.81, 100.04
29.81, 100.04
29.81, 100.04
29.81, 100.04
29.81, 100.04
29.81, 100.04
29.81, 100.04
29.81, 100.04
29.81, 100.04
29.81, 100.04
29.82, 100.04
29.82, 100.04
29.82, 100.04
29.82, 100.04
29.82, 100.04
29.82, 100.04
29.82, 100.04
29.82, 100.04
29.82, 100.04
29.82, 100.04
29.82, 100.04
29.83, 100.04
29.83, 100.04
29.83, 100.04
29.83, 100.04
29.83, 100.04
29.83, 100.04
29.83, 100.04
29.83, 100.04
29.83, 100.04
29.83, 100.04
29.83, 100.04
29.83, 100.04
29.84, 100.04
29.84, 100.04
29.84, 100.04
29.84, 100.04
29.84, 100.04
29.84, 100.04
29.84, 100.04
29.84, 100.04
29.84, 100.04
29.84, 100.04
29.84, 100.04
29.85, 100.04
29.85, 100.04
29.85, 100.04
29.85, 100.04
29.85, 100.04
29.85, 100.04
29.85, 100.04
29.85, 100.04
29.85, 100.04
29.85, 100.04
29.85, 100.04
29.86, 100.04
29.86, 100.04
29.86, 100.04
29.86, 100.04
29.86, 100.04
29.86, 100.04
29.86, 100.04
29.86, 100.04
29.86, 100.04
29.86, 100.04
29.86, 100.04
29.86, 100.04
29.87, 100.04
29.87, 100.04
29.87, 100.04
29.87, 100.04
29.87, 100.04
29.87, 100.04
29.87, 100.04
29.87, 100.04
29.87, 100.04
29.87, 100.04
29.87, 100.04
29.87, 100.04
29.88, 100.04
29.88, 100.04
29.88, 100.04
29.88, 100.04
29.88, 100.04
29.88, 100.04
29.88, 100.04
29.88, 100.04
29.88, 100.04
29.88, 100.04
29.88, 100.04
29.89, 100.04
29.89, 100.04
29.89, 100.04
29.89, 100.04
29.89, 100.04
29.89, 100.04
29.89, 100.04
29.89, 100.04
29.89, 100.04
29.89, 100.04
29.89, 100.04
29.89, 100.04
29.9, 100.04
29.9, 100.04
29.9, 100.04
29.9, 100.04
29.9, 100.04
29.9, 100.04
29.9, 100.04
29.9, 100.04
29.9, 100.04
29.9, 100.04
29.9, 100.04
29.9, 100.04
29.91, 100.04
29.91, 100.04
29.91, 100.04
29.91, 100.04
29.91, 100.04
29.91, 100.04
29.91, 100.04
29.91, 100.04
29.91, 100.04
29.91, 100.04
29.91, 100.04
29.91, 100.04
29.91, 100.04
29.92, 100.04
29.92, 100.04
29.92, 100.04
29.92, 100.04
29.92, 100.04
29.92, 100.04
29.92, 100.04
29.92, 100.04
29.92, 100.04
29.92, 100.04
29.92, 100.04
29.92, 100.04
29.92, 100.04
29.93, 100.04
29.93, 100.04
29.93, 100.04
29.93, 100.04
29.93, 100.04
29.93, 100.04
29.93, 100.04
29.93, 100.04
29.93, 100.04
29.93, 100.04
29.93, 100.04
29.93, 100.04
29.93, 100.04
29.94, 100.04
29.94, 100.04
29.94, 100.04
29.94, 100.04
29.94, 100.04
29.94, 100.04
29.94, 100.04
29.94, 100.04
29.94, 100.04
29.94, 100.04
29.94, 100.04
29.94, 100.04
29.94, 100.04
29.95, 100.04
29.95, 100.04
29.95, 100.04
29.95, 100.04
29.95, 100.04
29.95, 100.04
29.95, 100.04
29.95, 100.04
29.95, 100.04
29.95, 100.04
29.95, 100.04
29.95, 100.04
29.95, 100.04
29.95, 100.04
29.96, 100.04
29.96, 100.04
29.96, 100.04
29.96, 100.04
29.96, 100.04
29.96, 100.04
29.96, 100.04
29.96, 100.04
29.96, 100.04
29.96, 100.04
29.96, 100.04
29.96, 100.04
29.96, 100.04
29.96, 100.04
29.97, 100.04
29.97, 100.04
29.97, 100.04
29.97, 100.04
29.97, 100.04
29.97, 100.04
29.97, 100.04
29.97, 100.04
29.97, 100.04
29.97, 100.04
29.97, 100.04
29.97, 100.04
29.97, 100.04
29.97, 100.04
29.98, 100.04
29.98, 100.04
29.98, 100.04
29.98, 100.04
29.98, 100.04
29.98, 100.04
29.98, 100.04
29.98, 100.04
29.98, 100.04
29.98, 100.04
29.98, 100.04
29.98, 100.04
29.98, 100.04
29.98, 100.04
29.98, 100.04
29.99, 100.04
29.99, 100.04
29.99, 100.04
29.99, 100.04
29.99, 100.04
29.99, 100.04
29.99, 100.04
29.99, 100.04
29.99, 100.04
29.99, 100.04
29.99, 100.04
29.99, 100.04
29.99, 100.04
29.99, 100.04
29.99, 100.04
30.0, 100.04
30.0, 100.04
30.0, 100.04
30.0, 100.04
30.0, 100.04
30.0, 100.04
30.0, 100.04
30.0, 100.04
30.0, 100.04
30.0, 100.04
30.0, 100.04
30.0, 100.04
30.0, 100.04
30.0, 100.04
30.0, 100.04
30.01, 100.04
30.01, 100.04
30.01, 100.04
30.01, 100.04
30.01, 100.04
30.01, 100.04
30.01, 100.04
30.01, 100.04
30.01, 100.04
30.01, 100.04
30.01, 100.04
30.01, 100.04
30.01, 100.04
30.01, 100.04
30.01, 100.04
30.02, 100.04
30.02, 100.04
30.02, 100.04
30.02, 100.04
30.02, 100.04
30.02, 100.04
30.02, 100.04
30.02, 100.04
30.02, 100.04
30.02, 100.04
30.02, 100.04
30.02, 100.04
30.02, 100.04
30.02, 100.04
30.02, 100.04
30.02, 100.04
30.03, 100.04
30.03, 100.04
30.03, 100.04
30.03, 100.04
30.03, 100.04
30.03, 100.04
30.03, 100.04
30.03, 100.04
30.03, 100.04
30.03, 100.04
30.03, 100.04
30.03, 100.04
30.03, 100.04
30.03, 100.04
30.03, 100.04
30.03, 100.04
30.04, 100.04
30.04, 100.04
30.04, 100.04
30.04, 100.04
30.04, 100.04
30.04, 100.04
30.04, 100.04
30.04, 100.04
30.04, 100.04
30.04, 100.04
30.04, 100.04
30.04, 100.04
30.04, 100.04
30.04, 100.04
30.04, 100.04
30.04, 100.04
30.04, 100.04
30.05, 100.04
30.05, 100.04
30.05, 100.04
30.05, 100.04
30.05, 100.04
30.05, 100.04
30.05, 100.04
30.05, 100.04
30.05, 100.04
30.05, 100.04
30.05, 100.04
30.05, 100.04
30.05, 100.04
30.05, 100.04
30.05, 100.04
30.05, 100.04
30.05, 100.04
30.06, 100.04
30.06, 100.04
30.06, 100.04
30.06, 100.04
30.06, 100.04
30.06, 100.04
30.06, 100.04
30.06, 100.04
30.06, 100.04
30.06, 100.04
30.06, 100.04
30.06, 100.04
30.06, 100.04
30.06, 100.04
30.06, 100.04
30.06, 100.04
30.06, 100.04
30.06, 100.04
30.06, 100.04
30.07, 100.04
30.07, 100.04
30.07, 100.04
30.07, 100.04
30.07, 100.04
30.07, 100.04
30.07, 100.04
30.07, 100.04
30.07, 100.04
30.07, 100.04
30.07, 100.04
30.07, 100.04
30.07, 100.04
30.07, 100.04
30.07, 100.04
30.07, 100.04
30.07, 100.04
30.07, 100.04
30.07, 100.04
30.08, 100.04
30.08, 100.04
30.08, 100.04
30.08, 100.04
30.08, 100.04
30.08, 100.04
30.08, 100.04
30.08, 100.04
30.08, 100.04
30.08, 100.04
30.08, 100.04
30.08, 100.04
30.08, 100.04
30.08, 100.04
30.08, 100.04
30.08, 100.04
30.08, 100.04
30.08, 100.04
30.08, 100.04
30.08, 100.04
30.08, 100.04
30.09, 100.04
30.09, 100.04
30.09, 100.04
30.09, 100.04
30.09, 100.04
30.09, 100.04
30.09, 100.04
30.09, 100.04
30.09, 100.04
30.09, 100.04
30.09, 100.04
30.09, 100.04
30.09, 100.04
30.09, 100.04
30.09, 100.04
30.09, 100.04
30.09, 100.04
30.09, 100.04
30.09, 100.04
30.09, 100.04
30.09, 100.04
30.1, 100.04
30.1, 100.04
30.1, 100.04
30.1, 100.04
30.1, 100.04
30.1, 100.04
30.1, 100.04
30.1, 100.04
30.1, 100.04
30.1, 100.04
30.1, 100.04
30.1, 100.04
30.1, 100.04
30.1, 100.04
30.1, 100.04
30.1, 100.04
30.1, 100.04
30.1, 100.04
30.1, 100.04
30.1, 100.04
30.1, 100.04
30.1, 100.04
30.1, 100.04
30.11, 100.04
30.11, 100.04
30.11, 100.04
30.11, 100.04
30.11, 100.04
30.11, 100.04
30.11, 100.04
30.11, 100.04
30.11, 100.04
30.11, 100.04
30.11, 100.04
30.11, 100.04
30.11, 100.04
30.11, 100.04
30.11, 100.04
30.11, 100.04
30.11, 100.04
30.11, 100.04
30.11, 100.04
30.11, 100.04
30.11, 100.04
30.11, 100.04
30.11, 100.04
30.11, 100.04
30.11, 100.04
30.12, 100.04
30.12, 100.04
30.12, 100.04
30.12, 100.04
30.12, 100.04
30.12, 100.04
30.12, 100.04
30.12, 100.04
30.12, 100.04
30.12, 100.04
30.12, 100.04
30.12, 100.04
30.12, 100.04
30.12, 100.04
30.12, 100.04
30.12, 100.04
30.12, 100.04
30.12, 100.04
30.12, 100.04
30.12, 100.04
30.12, 100.04
30.12, 100.04
30.12, 100.04
30.12, 100.04
30.12, 100.04
30.12, 100.04
30.12, 100.04
30.12, 100.04
30.13, 100.04
30.13, 100.04
30.13, 100.04
30.13, 100.04
30.13, 100.04
30.13, 100.04
30.13, 100.04
30.13, 100.04
30.13, 100.04
30.13, 100.04
30.13, 100.04
30.13, 100.04
30.13, 100.04
30.13, 100.04
30.13, 100.04
30.13, 100.04
30.13, 100.04
30.13, 100.04
30.13, 100.04
30.13, 100.04
30.13, 100.04
30.13, 100.04
30.13, 100.04
30.13, 100.04
30.13, 100.04
30.13, 100.04
30.13, 100.04
30.13, 100.04
30.13, 100.04
30.13, 100.04
30.13, 100.04
30.13, 100.04
30.14, 100.04
30.14, 100.04
30.14, 100.04
30.14, 100.04
30.14, 100.04
30.14, 100.04
30.14, 100.04
30.14, 100.04
30.14, 100.04
30.14, 100.04
30.14, 100.04
30.14, 100.04
30.14, 100.04
30.14, 100.04
30.14, 100.04
30.14, 100.04
30.14, 100.04
30.14, 100.04
30.14, 100.04
30.14, 100.04
30.14, 100.04
30.14, 100.04
30.14, 100.04
30.14, 100.04
30.14, 100.04
30.14, 100.04
30.14, 100.04
30.14, 100.04
30.14, 100.04
30.14, 100.04
30.14, 100.04
30.14, 100.04
30.14, 100.04
30.14, 100.04
30.14, 100.04
30.14, 100.04
30.14, 100.04
30.14, 100.04
30.14, 100.04
30.14, 100.04
30.14, 100.04
30.15, 100.04
30.15, 100.04
30.15, 100.04
30.15, 100.04
30.15, 100.04
30.15, 100.04
30.15, 100.04
30.15, 100.04
30.15, 100.04
30.15, 100.04
30.15, 100.04
30.15, 100.04
30.15, 100.04
30.15, 100.04
30.15, 100.04
30.15, 100.04
30.15, 100.04
30.15, 100.04
30.15, 100.04
30.15, 100.04
30.15, 100.04
30.15, 100.04
30.15, 100.04
30.15, 100.04
30.15, 100.04
30.15, 100.04
30.15, 100.04
30.15, 100.04
30.15, 100.04
30.15, 100.04
30.15, 100.04
30.15, 100.04
30.15, 100.04
30.15, 100.04
30.15, 100.04
30.15, 100.04
30.15, 100.04
30.15, 100.04
30.15, 100.04
30.15, 100.04
30.15, 100.04
30.15, 100.04
30.15, 100.04
30.15, 100.04
30.15, 100.04
30.15, 100.04
30.15, 100.04
30.15, 100.04
30.15, 100.04
30.15, 100.04
30.15, 100.04
30.15, 100.04
30.15, 100.04
30.15, 100.04
30.15, 100.04
30.15, 100.04
30.15, 100.04
30.15, 100.04
30.15, 100.04
30.15, 100.04
30.15, 100.04
30.15, 100.04
30.15, 100.04
30.15, 100.04
30.15, 100.04
30.15, 100.04
30.15, 100.04
30.15, 100.04
30.15, 100.04
30.15, 100.04
30.15, 100.04
30.15, 100.04
30.15, 100.04
30.15, 100.04
30.15, 100.04
30.15, 100.04
30.15, 100.04
30.15, 100.04
30.15, 100.04
30.16, 100.04
30.16, 100.04
30.16, 100.04
30.16, 100.04
30.16, 100.04
30.16, 100.04
30.16, 100.04
30.16, 100.04
30.16, 100.04
30.16, 100.04
30.16, 100.04
30.16, 100.04
30.16, 100.04
30.16, 100.04
30.16, 100.04
30.16, 100.04
30.16, 100.04
30.16, 100.04
30.16, 100.04
30.16, 100.04
30.16, 100.04
30.16, 100.04
30.16, 100.04
30.16, 100.04
30.16, 100.04
30.16, 100.04
30.16, 100.04
30.16, 100.04
30.16, 100.04
30.16, 100.04
30.16, 100.04
30.16, 100.04
30.16, 100.04
30.16, 100.04
30.16, 100.04
30.16, 100.04
30.16, 100.04
30.16, 100.04
30.16, 100.04
30.16, 100.04
30.16, 100.04
30.16, 100.04
30.16, 100.04
30.16, 100.04
30.16, 100.04
30.16, 100.04
30.16, 100.04
30.16, 100.04
30.16, 100.04
30.16, 100.04
30.16, 100.04
30.16, 100.04
30.16, 100.04
30.16, 100.04
30.16, 100.04
30.16, 100.04
30.16, 100.04
30.16, 100.04
30.16, 100.04
30.16, 100.04
30.16, 100.04
30.16, 100.04
30.16, 100.04
30.16, 100.04
30.15, 100.04
30.15, 100.04
30.15, 100.04
30.15, 100.04
30.15, 100.04
30.15, 100.04
30.15, 100.04
30.15, 100.04
30.15, 100.04
30.15, 100.04
30.15, 100.04
30.15, 100.04
30.15, 100.04
30.15, 100.04
30.15, 100.04
30.15, 100.04
30.15, 100.04
30.15, 100.04
30.15, 100.04
30.15, 100.04
30.15, 100.04
30.15, 100.04
30.15, 100.04
30.15, 100.04
30.15, 100.04
30.15, 100.04
30.15, 100.04
30.15, 100.04
30.15, 100.04
30.15, 100.04
30.15, 100.04
30.15, 100.04
30.15, 100.04
30.15, 100.04
30.15, 100.04
30.15, 100.04
30.15, 100.04
30.15, 100.04
30.15, 100.04
30.15, 100.04
30.15, 100.04
30.15, 100.04
30.15, 100.04
30.15, 100.04
30.15, 100.04
30.15, 100.04
30.15, 100.04
30.15, 100.04
30.15, 100.04
30.15, 100.04
30.15, 100.04
30.15, 100.04
30.15, 100.04
30.15, 100.04
30.15, 100.04
30.15, 100.04
30.15, 100.04
30.15, 100.04
30.15, 100.04
30.15, 100.04
30.15, 100.04
30.15, 100.04
30.15, 100.04
30.15, 100.04
30.15, 100.04
30.15, 100.04
30.15, 100.04
30.15, 100.04
30.15, 100.04
30.15, 100.04
30.15, 100.04
30.15, 100.04
30.15, 100.04
30.15, 100.04
30.15, 100.04
30.15, 100.04
30.15, 100.04
30.15, 100.04
30.15, 100.04
30.15, 100.04
30.15, 100.04
30.15, 100.04
30.15, 100.04
30.15, 100.04
30.15, 100.04
30.15, 100.04
30.15, 100.04
30.15, 100.04
30.15, 100.04
30.15, 100.04
30.15, 100.04
30.15, 100.04
30.15, 100.04
30.15, 100.04
30.15, 100.04
30.15, 100.04
30.15, 100.04
30.15, 100.04
30.14, 100.04
30.14, 100.04
30.14, 100.04
30.14, 100.04
30.14, 100.04
30.14, 100.04
30.14, 100.04
30.14, 100.04
30.14, 100.04
30.14, 100.04
30.14, 100.04
30.14, 100.04
30.14, 100.04
30.14, 100.04
30.14, 100.04
30.14, 100.04
30.14, 100.04
30.14, 100.04
30.14, 100.04
30.14, 100.04
30.14, 100.04
30.14, 100.04
30.14, 100.04
30.14, 100.04
30.14, 100.04
30.14, 100.04
30.14, 100.04
30.14, 100.04
30.14, 100.04
30.14, 100.04
30.14, 100.04
30.14, 100.04
30.14, 100.04
30.14, 100.04
30.14, 100.04
30.14, 100.04
30.14, 100.04
30.14, 100.04
30.14, 100.04
30.14, 100.04
30.14, 100.04
30.14, 100.04
30.14, 100.04
30.14, 100.04
30.14, 100.04
30.14, 100.04
30.14, 100.04
30.14, 100.04
30.14, 100.04
30.14, 100.04
30.14, 100.04
30.14, 100.04
30.14, 100.04
30.14, 100.04
30.13, 100.04
30.13, 100.04
30.13, 100.04
30.13, 100.04
30.13, 100.04
30.13, 100.04
30.13, 100.04
30.13, 100.04
30.13, 100.04
30.13, 100.04
30.13, 100.04
30.13, 100.04
30.13, 100.04
30.13, 100.04
30.13, 100.04
30.13, 100.04
30.13, 100.04
30.13, 100.04
30.13, 100.04
30.13, 100.04
30.13, 100.04
30.13, 100.04
30.13, 100.04
30.13, 100.04
30.13, 100.04
30.13, 100.04
30.13, 100.04
30.13, 100.04
30.13, 100.04
30.13, 100.04
30.13, 100.04
30.13, 100.04
30.13, 100.04
30.13, 100.04
30.13, 100.04
30.13, 100.04
30.13, 100.04
30.13, 100.04
30.13, 100.04
30.13, 100.04
30.13, 100.04
30.12, 100.04
30.12, 100.04
30.12, 100.04
30.12, 100.04
30.12, 100.04
30.12, 100.04
30.12, 100.04
30.12, 100.04
30.12, 100.04
30.12, 100.04
30.12, 100.04
30.12, 100.04
30.12, 100.04
30.12, 100.04
30.12, 100.04
30.12, 100.04
30.12, 100.04
30.12, 100.04
30.12, 100.04
30.12, 100.04
30.12, 100.04
30.12, 100.04
30.12, 100.04
30.12, 100.04
30.12, 100.04
30.12, 100.04
30.12, 100.04
30.12, 100.04
30.12, 100.04
30.12, 100.04
30.12, 100.04
30.12, 100.04
30.12, 100.04
30.12, 100.04
30.11, 100.04
30.11, 100.04
30.11, 100.04
30.11, 100.04
30.11, 100.04
30.11, 100.04
30.11, 100.04
30.11, 100.04
30.11, 100.04
30.11, 100.04
30.11, 100.04
30.11, 100.04
30.11, 100.04
30.11, 100.04
30.11, 100.04
30.11, 100.04
30.11, 100.04
30.11, 100.04
30.11, 100.04
30.11, 100.04
30.11, 100.04
30.11, 100.04
30.11, 100.04
30.11, 100.04
30.11, 100.04
30.11, 100.04
30.11, 100.04
30.11, 100.04
30.11, 100.04
30.1, 100.04
30.1, 100.04
30.1, 100.04
30.1, 100.04
30.1, 100.04
30.1, 100.04
30.1, 100.04
30.1, 100.04
30.1, 100.04
30.1, 100.04
30.1, 100.04
30.1, 100.04
30.1, 100.04
30.1, 100.04
30.1, 100.04
30.1, 100.04
30.1, 100.04
30.1, 100.04
30.1, 100.04
30.1, 100.04
30.1, 100.04
30.1, 100.04
30.1, 100.04
30.1, 100.04
30.1, 100.04
30.09, 100.04
30.09, 100.04
30.09, 100.04
30.09, 100.04
30.09, 100.04
30.09, 100.04
30.09, 100.04
30.09, 100.04
30.09, 100.04
30.09, 100.04
30.09, 100.04
30.09, 100.04
30.09, 100.04
30.09, 100.04
30.09, 100.04
30.09, 100.04
30.09, 100.04
30.09, 100.04
30.09, 100.04
30.09, 100.04
30.09, 100.04
30.09, 100.04
30.09, 100.04
30.09, 100.04
30.08, 100.04
30.08, 100.04
30.08, 100.04
30.08, 100.04
30.08, 100.04
30.08, 100.04
30.08, 100.04
30.08, 100.04
30.08, 100.04
30.08, 100.04
30.08, 100.04
30.08, 100.04
30.08, 100.04
30.08, 100.04
30.08, 100.04
30.08, 100.04
30.08, 100.04
30.08, 100.04
30.08, 100.04
30.08, 100.04
30.08, 100.04
30.08, 100.04
30.08, 100.04
30.07, 100.04
30.07, 100.04
30.07, 100.04
30.07, 100.04
30.07, 100.04
30.07, 100.04
30.07, 100.04
30.07, 100.04
30.07, 100.04
30.07, 100.04
30.07, 100.04
30.07, 100.04
30.07, 100.04
30.07, 100.04
30.07, 100.04
30.07, 100.04
30.07, 100.04
30.07, 100.04
30.07, 100.04
30.07, 100.04
30.07, 100.04
30.06, 100.04
30.06, 100.04
30.06, 100.04
30.06, 100.04
30.06, 100.04
30.06, 100.04
30.06, 100.04
30.06, 100.04
30.06, 100.04
30.06, 100.04
30.06, 100.04
30.06, 100.04
30.06, 100.04
30.06, 100.04
30.06, 100.04
30.06, 100.04
30.06, 100.04
30.06, 100.04
30.06, 100.04
30.06, 100.04
30.05, 100.04
30.05, 100.04
30.05, 100.04
30.05, 100.04
30.05, 100.04
30.05, 100.04
30.05, 100.04
30.05, 100.04
30.05, 100.04
30.05, 100.04
30.05, 100.04
30.05, 100.04
30.05, 100.04
30.05, 100.04
30.05, 100.04
30.05, 100.04
30.05, 100.04
30.05, 100.04
30.05, 100.04
30.05, 100.04
30.04, 100.04
30.04, 100.04
30.04, 100.04
30.04, 100.04
30.04, 100.04
30.04, 100.04
30.04, 100.04
30.04, 100.04
30.04, 100.04
30.04, 100.04
30.04, 100.04
30.04, 100.04
30.04, 100.04
30.04, 100.04
30.04, 100.04
30.04, 100.04
30.04, 100.04
30.04, 100.04
30.04, 100.04
30.03, 100.04
30.03, 100.04
30.03, 100.04
30.03, 100.04
30.03, 100.04
30.03, 100.04
30.03, 100.04
30.03, 100.04
30.03, 100.04
30.03, 100.04
30.03, 100.04
30.03, 100.04
30.03, 100.04
30.03, 100.04
30.03, 100.04
30.03, 100.04
30.03, 100.04
30.03, 100.04
30.02, 100.04
30.02, 100.04
30.02, 100.04
30.02, 100.04
30.02, 100.04
30.02, 100.04
30.02, 100.04
30.02, 100.04
30.02, 100.04
30.02, 100.04
30.02, 100.04
30.02, 100.04
30.02, 100.04
30.02, 100.04
30.02, 100.04
30.02, 100.04
30.02, 100.04
30.01, 100.04
30.01, 100.04
30.01, 100.04
30.01, 100.04
30.01, 100.04
30.01, 100.04
30.01, 100.04
30.01, 100.04
30.01, 100.04
30.01, 100.04
30.01, 100.04
30.01, 100.04
30.01, 100.04
30.01, 100.04
30.01, 100.04
30.01, 100.04
30.01, 100.04
30.0, 100.04
30.0, 100.04
30.0, 100.04
30.0, 100.04
30.0, 100.04
30.0, 100.04
30.0, 100.04
30.0, 100.04
30.0, 100.04
30.0, 100.04
30.0, 100.04
30.0, 100.04
30.0, 100.04
30.0, 100.04
30.0, 100.04
30.0, 100.04
29.99, 100.04
29.99, 100.04
29.99, 100.04
29.99, 100.04
29.99, 100.04
29.99, 100.04
29.99, 100.04
29.99, 100.04
29.99, 100.04
29.99, 100.04
29.99, 100.04
29.99, 100.04
29.99, 100.04
29.99, 100.04
29.99, 100.04
29.99, 100.04
29.98, 100.04
29.98, 100.04
29.98, 100.04
29.98, 100.04
29.98, 100.04
29.98, 100.04
29.98, 100.04
29.98, 100.04
29.98, 100.04
29.98, 100.04
29.98, 100.04
29.98, 100.04
29.98, 100.04
29.98, 100.04
29.97, 100.04
29.97, 100.04
29.97, 100.04
29.97, 100.04
29.97, 100.04
29.97, 100.04
29.97, 100.04
29.97, 100.04
29.97, 100.04
29.97, 100.04
29.97, 100.04
29.97, 100.04
29.97, 100.04
29.97, 100.04
29.97, 100.04
29.96, 100.04
29.96, 100.04
29.96, 100.04
29.96, 100.04
29.96, 100.04
29.96, 100.04
29.96, 100.04
29.96, 100.04
29.96, 100.04
29.96, 100.04
29.96, 100.04
29.96, 100.04
29.96, 100.04
29.96, 100.04
29.95, 100.04
29.95, 100.04
29.95, 100.04
29.95, 100.04
29.95, 100.04
29.95, 100.04
29.95, 100.04
29.95, 100.04
29.95, 100.04
29.95, 100.04
29.95, 100.04
29.95, 100.04
29.95, 100.04
29.95, 100.04
29.95, 100.04
29.94, 100.04
29.94, 100.04
29.94, 100.04
29.94, 100.04
29.94, 100.04
29.94, 100.04
29.94, 100.04
29.94, 100.04
29.94, 100.04
29.94, 100.04
29.94, 100.04
29.94, 100.04
29.94, 100.04
29.94, 100.04
29.93, 100.04
29.93, 100.04
29.93, 100.04
29.93, 100.04
29.93, 100.04
29.93, 100.04
29.93, 100.04
29.93, 100.04
29.93, 100.04
29.93, 100.04
29.93, 100.04
29.93, 100.04
29.93, 100.04
29.93, 100.04
29.92, 100.04
29.92, 100.04
29.92, 100.04
29.92, 100.04
29.92, 100.04
29.92, 100.04
29.92, 100.04
29.92, 100.04
29.92, 100.04
29.92, 100.04
29.92, 100.04
29.92, 100.04
29.92, 100.04
29.91, 100.04
29.91, 100.04
29.91, 100.04
29.91, 100.04
29.91, 100.04
29.91, 100.04
29.91, 100.04
29.91, 100.04
29.91, 100.04
29.91, 100.04
29.91, 100.04
29.91, 100.04
29.91, 100.04
29.91, 100.04
29.9, 100.04
29.9, 100.04
29.9, 100.04
29.9, 100.04
29.9, 100.04
29.9, 100.04
29.9, 100.04
29.9, 100.04
29.9, 100.04
29.9, 100.04
29.9, 100.04
29.9, 100.04
29.9, 100.04
29.89, 100.04
29.89, 100.04
29.89, 100.04
29.89, 100.04
29.89, 100.04
29.89, 100.04
29.89, 100.04
29.89, 100.04
29.89, 100.04
29.89, 100.04
29.89, 100.04
29.89, 100.04
29.89, 100.04
29.89, 100.04
29.88, 100.04
29.88, 100.04
29.88, 100.04
29.88, 100.04
29.88, 100.04
29.88, 100.04
29.88, 100.04
29.88, 100.04
29.88, 100.04
29.88, 100.04
29.88, 100.04
29.88, 100.04
29.88, 100.04
29.87, 100.04
29.87, 100.04
29.87, 100.04
29.87, 100.04
29.87, 100.04
29.87, 100.04
29.87, 100.04
29.87, 100.04
29.87, 100.04
29.87, 100.04
29.87, 100.04
29.87, 100.04
29.86, 100.04
29.86, 100.04
29.86, 100.04
29.86, 100.04
29.86, 100.04
29.86, 100.04
29.86, 100.04
29.86, 100.04
29.86, 100.04
29.86, 100.04
29.86, 100.04
29.86, 100.04
29.86, 100.04
29.85, 100.04
29.85, 100.04
29.85, 100.04
29.85, 100.04
29.85, 100.04
29.85, 100.04
29.85, 100.04
29.85, 100.04
29.85, 100.04
29.85, 100.04
29.85, 100.04
29.85, 100.04
29.85, 100.04
29.84, 100.04
29.84, 100.04
29.84, 100.04
29.84, 100.04
29.84, 100.04
29.84, 100.04
29.84, 100.04
29.84, 100.04
29.84, 100.04
29.84, 100.04
29.84, 100.04
29.84, 100.04
29.83, 100.04
29.83, 100.04
29.83, 100.04
29.83, 100.04
29.83, 100.04
29.83, 100.04
29.83, 100.04
29.83, 100.04
29.83, 100.04
29.83, 100.04
29.83, 100.04
29.83, 100.04
29.83, 100.04
29.82, 100.04
29.82, 100.04
29.82, 100.04
29.82, 100.04
29.82, 100.04
29.82, 100.04
29.82, 100.04
29.82, 100.04
29.82, 100.04
29.82, 100.04
29.82, 100.04
29.82, 100.04
29.82, 100.04
29.82, 100.04
29.81, 100.04
29.81, 100.04
29.81, 100.04
29.81, 100.04
29.81, 100.04
29.81, 100.04
29.81, 100.04
29.81, 100.04
29.81, 100.04
29.81, 100.04
29.81, 100.04
29.81, 100.04
29.81, 100.04
29.81, 100.04
29.8, 100.04
29.8, 100.04
29.8, 100.04
29.8, 100.04
29.8, 100.04
29.8, 100.04
29.8, 100.04
29.8, 100.04
29.8, 100.04
29.8, 100.04
29.8, 100.04
29.8, 100.04
29.8, 100.04
29.8, 100.04
29.8, 100.04
29.79, 100.04
29.79, 100.04
29.79, 100.04
29.79, 100.04
29.79, 100.04
29.79, 100.04
29.79, 100.04
29.79, 100.04
29.79, 100.04
29.79, 100.04
29.79, 100.04
29.79, 100.04
29.79, 100.04
29.79, 100.04
29.79, 100.04
29.79, 100.04
29.78, 100.04
29.78, 100.04
29.78, 100.04
29.78, 100.04
29.78, 100.04
29.78, 100.04
29.78, 100.04
29.78, 100.04
29.78, 100.04
29.78, 100.04
29.78, 100.04
29.78, 100.04
29.78, 100.04
29.78, 100.04
29.78, 100.04
29.78, 100.04
29.78, 100.04
29.78, 100.04
29.77, 100.04
29.77, 100.04
29.77, 100.04
29.77, 100.04
29.77, 100.04
29.77, 100.04
29.77, 100.04
29.77, 100.04
29.77, 100.04
29.77, 100.04
29.77, 100.04
29.77, 100.04
29.77, 100.04
29.77, 100.04
29.77, 100.04
29.77, 100.04
29.77, 100.04
29.77, 100.04
29.76, 100.04
29.76, 100.04
29.76, 100.04
29.76, 100.04
29.76, 100.04
29.76, 100.04
29.76, 100.04
29.76, 100.04
29.76, 100.04
29.76, 100.04
29.76, 100.04
29.76, 100.04
29.76, 100.04
29.76, 100.04
29.76, 100.04
29.76, 100.04
29.76, 100.04
29.76, 100.04
29.76, 100.04
29.76, 100.04
29.75, 100.04
29.75, 100.04
29.75, 100.04
29.75, 100.04
29.75, 100.04
29.75, 100.04
29.75, 100.04
29.75, 100.04
29.75, 100.04
29.75, 100.04
29.75, 100.04
29.75, 100.04
29.75, 100.04
29.75, 100.04
29.75, 100.04
29.75, 100.04
29.75, 100.04
29.75, 100.04
29.75, 100.04
29.75, 100.04
29.74, 100.04
29.74, 100.04
29.74, 100.04
29.74, 100.04
29.74, 100.04
29.74, 100.04
29.74, 100.04
29.74, 100.04
29.74, 100.04
29.74, 100.04
29.74, 100.04
29.74, 100.04
29.74, 100.04
29.74, 100.04
29.74, 100.04
29.74, 100.04
29.74, 100.04
29.74, 100.04
29.74, 100.04
29.74, 100.04
29.74, 100.04
29.74, 100.04
29.74, 100.04
29.73, 100.04
29.73, 100.04
29.73, 100.04
29.73, 100.04
29.73, 100.04
29.73, 100.04
29.73, 100.04
29.73, 100.04
29.73, 100.04
29.73, 100.04
29.73, 100.04
29.73, 100.04
29.73, 100.04
29.73, 100.04
29.73, 100.04
29.73, 100.04
29.73, 100.04
29.73, 100.04
29.73, 100.04
29.73, 100.04
29.73, 100.04
29.73, 100.04
29.73, 100.04
29.73, 100.04
29.73, 100.04
29.73, 100.04
29.73, 100.04
29.73, 100.04
29.72, 100.04
29.72, 100.04
29.72, 100.04
29.72, 100.04
29.72, 100.04
29.72, 100.04
29.72, 100.04
29.72, 100.04
29.72, 100.04
29.72, 100.04
29.72, 100.04
29.72, 100.04
29.72, 100.04
29.72, 100.04
29.72, 100.04
29.72, 100.04
29.72, 100.04
29.72, 100.04
29.72, 100.04
29.72, 100.04
29.72, 100.04
29.72, 100.04
29.72, 100.04
29.72, 100.04
29.72, 100.04
29.72, 100.04
29.72, 100.04
29.72, 100.04
29.72, 100.04
29.72, 100.04
29.72, 100.04
29.72, 100.04
29.71, 100.04
29.71, 100.04
29.71, 100.04
29.71, 100.04
29.71, 100.04
29.71, 100.04
29.71, 100.04
29.71, 100.04
29.71, 100.04
29.71, 100.04
29.71, 100.04
29.71, 100.04
29.71, 100.04
29.71, 100.04
29.71, 100.04
29.71, 100.04
29.71, 100.04
29.71, 100.04
29.71, 100.04
29.71, 100.04
29.71, 100.04
29.71, 100.04
29.71, 100.04
29.71, 100.04
29.71, 100.04
29.71, 100.04
29.71, 100.04
29.71, 100.04
29.71, 100.04
29.71, 100.04
29.71, 100.04
29.71, 100.04
29.71, 100.04
29.71, 100.04
29.71, 100.04
29.71, 100.04
29.71, 100.04
29.71, 100.04
29.71, 100.04
29.71, 100.04
29.71, 100.04
29.71, 100.04
29.7, 100.04
29.7, 100.04
29.7, 100.04
29.7, 100.04
29.7, 100.04
29.7, 100.04
29.7, 100.04
29.7, 100.04
29.7, 100.04
29.7, 100.04
29.7, 100.04
29.7, 100.04
29.7, 100.04
29.7, 100.04
29.7, 100.04
29.7, 100.04
29.7, 100.04
29.7, 100.04
29.7, 100.04
29.7, 100.04
29.7, 100.04
29.7, 100.04
29.7, 100.04
29.7, 100.04
29.7, 100.04
29.7, 100.04
29.7, 100.04
29.7, 100.04
29.7, 100.04
29.7, 100.04
29.7, 100.04
29.7, 100.04
29.7, 100.04
29.7, 100.04
29.7, 100.04
29.7, 100.04
29.7, 100.04
29.7, 100.04
29.7, 100.04
29.7, 100.04
29.7, 100.04
29.7, 100.04
29.7, 100.04
29.7, 100.04
29.7, 100.04
29.7, 100.04
29.7, 100.04
29.7, 100.04
29.7, 100.04
29.7, 100.04
29.7, 100.04
29.7, 100.04
29.7, 100.04
29.7, 100.04
29.7, 100.04
29.7, 100.04
29.7, 100.04
29.7, 100.04
29.7, 100.04
29.7, 100.04
29.7, 100.04
29.7, 100.04
29.7, 100.04
29.69, 100.04
29.69, 100.04
29.69, 100.04
29.69, 100.04
29.69, 100.04
29.69, 100.04
29.69, 100.04
29.69, 100.04
29.69, 100.04
29.69, 100.04
29.69, 100.04
29.69, 100.04
29.69, 100.04
29.69, 100.04
29.69, 100.04
29.69, 100.04
29.69, 100.04
29.69, 100.04
29.69, 100.04
29.69, 100.04
29.69, 100.04
29.69, 100.04
29.69, 100.04
29.69, 100.04
29.69, 100.04
29.69, 100.04
29.69, 100.04
29.69, 100.04
29.69, 100.04
29.69, 100.04
29.69, 100.04
29.69, 100.04
29.69, 100.04
29.69, 100.04
29.69, 100.04
29.69, 100.04
29.69, 100.04
29.69, 100.04
29.69, 100.04
29.69, 100.04
29.69, 100.04
29.69, 100.04
29.69, 100.04
29.69, 100.04
29.69, 100.04
29.69, 100.04
29.69, 100.04
29.69, 100.04
##END=$$ End of the data block
