##TITLE=Spectrum
##JCAMP-DX=5.00 $$ chemotion-converter-app (1.6.2)
##DATA TYPE=SIZE EXCLUSION CHROMATOGRAPHY
##DATA CLASS=XYPOINTS
##ORIGIN=
##OWNER=
##XUNITS=MILLILITERS
##YUNITS=ARBITRARY UNITS
##NO_DEC=2
##SOFTWARE=WINGPC
##FIRSTX=1.96405E+1
##LASTX=2.66388E+1
##MINX=19.6405
##MAXX=26.6388
##MINY=0.0
##MAXY=20.8874
##NPOINTS=423
##FIRSTY=0.00000E+0
##XUNITS=MILLILITERS
##YUNITS=ARBITRARY UNITS
##XYPOINTS=(XY..XY)
1.96405E+1, 0.00000E+0
1.96571E+1, 6.20210E-4
1.96736E+1, 4.89001E-3
1.96902E+1, 0.00000E+0
1.97068E+1, 0.00000E+0
1.97234E+1, 0.00000E+0
1.97400E+1, 0.00000E+0
1.97566E+1, 0.00000E+0
1.97731E+1, 0.00000E+0
1.97897E+1, 0.00000E+0
1.98063E+1, 0.00000E+0
1.98229E+1, 0.00000E+0
1.98395E+1, 0.00000E+0
1.98561E+1, 0.00000E+0
1.98726E+1, 7.96108E-5
1.98892E+1, 1.57294E-3
1.99058E+1, 1.91146E-4
1.99224E+1, 4.80356E-3
1.99390E+1, 7.34192E-5
1.99556E+1, 2.51498E-3
1.99721E+1, 2.62529E-4
1.99887E+1, 1.39591E-2
2.00053E+1, 2.48012E-4
2.00219E+1, 2.87887E-2
2.00385E+1, 1.28164E-2
2.00551E+1, 2.66441E-2
2.00716E+1, 3.20098E-2
2.00882E+1, 4.62630E-2
2.01048E+1, 5.74675E-2
2.01214E+1, 6.60877E-2
2.01380E+1, 1.09994E-1
2.01546E+1, 1.09915E-1
2.01711E+1, 1.47673E-1
2.01877E+1, 1.39795E-1
2.02043E+1, 2.04824E-1
2.02209E+1, 2.18063E-1
2.02375E+1, 2.77124E-1
2.02541E+1, 2.98297E-1
2.02706E+1, 3.50060E-1
2.02872E+1, 3.82538E-1
2.03038E+1, 4.43274E-1
2.03204E+1, 4.96039E-1
2.03370E+1, 5.59277E-1
2.03536E+1, 6.38962E-1
2.03702E+1, 7.01312E-1
2.03867E+1, 8.10485E-1
2.04033E+1, 8.76204E-1
2.04199E+1, 9.99930E-1
2.04365E+1, 1.08197E+0
2.04531E+1, 1.23366E+0
2.04697E+1, 1.34869E+0
2.04862E+1, 1.50609E+0
2.05028E+1, 1.64451E+0
2.05194E+1, 1.81294E+0
2.05360E+1, 1.97120E+0
2.05526E+1, 2.16313E+0
2.05692E+1, 2.34474E+0
2.05857E+1, 2.53574E+0
2.06023E+1, 2.73901E+0
2.06189E+1, 2.93517E+0
2.06355E+1, 3.15348E+0
2.06521E+1, 3.34608E+0
2.06687E+1, 3.56760E+0
2.06852E+1, 3.76019E+0
2.07018E+1, 3.97955E+0
2.07184E+1, 4.18125E+0
2.07350E+1, 4.40435E+0
2.07516E+1, 4.61080E+0
2.07682E+1, 4.83386E+0
2.07847E+1, 5.05825E+0
2.08013E+1, 5.30481E+0
2.08179E+1, 5.56328E+0
2.08345E+1, 5.83400E+0
2.08511E+1, 6.14432E+0
2.08677E+1, 6.47042E+0
2.08842E+1, 6.84454E+0
2.09008E+1, 7.23946E+0
2.09174E+1, 7.69138E+0
2.09340E+1, 8.16003E+0
2.09506E+1, 8.68232E+0
2.09672E+1, 9.23693E+0
2.09837E+1, 9.84652E+0
2.10003E+1, 1.04977E+1
2.10169E+1, 1.12039E+1
2.10335E+1, 1.19415E+1
2.10501E+1, 1.26865E+1
2.10667E+1, 1.34412E+1
2.10833E+1, 1.41867E+1
2.10998E+1, 1.49148E+1
2.11164E+1, 1.55930E+1
2.11330E+1, 1.62536E+1
2.11496E+1, 1.68721E+1
2.11662E+1, 1.74516E+1
2.11828E+1, 1.79802E+1
2.11993E+1, 1.84753E+1
2.12159E+1, 1.89219E+1
2.12325E+1, 1.93165E+1
2.12491E+1, 1.96669E+1
2.12657E+1, 1.99711E+1
2.12823E+1, 2.02304E+1
2.12988E+1, 2.04415E+1
2.13154E+1, 2.06148E+1
2.13320E+1, 2.07447E+1
2.13486E+1, 2.08373E+1
2.13652E+1, 2.08789E+1
2.13818E+1, 2.08874E+1
2.13983E+1, 2.08567E+1
2.14149E+1, 2.07906E+1
2.14315E+1, 2.06901E+1
2.14481E+1, 2.05649E+1
2.14647E+1, 2.04145E+1
2.14813E+1, 2.02399E+1
2.14978E+1, 2.00485E+1
2.15144E+1, 1.98348E+1
2.15310E+1, 1.96059E+1
2.15476E+1, 1.93584E+1
2.15642E+1, 1.90475E+1
2.15808E+1, 1.87061E+1
2.15973E+1, 1.83903E+1
2.16139E+1, 1.80804E+1
2.16305E+1, 1.77634E+1
2.16471E+1, 1.74404E+1
2.16637E+1, 1.71088E+1
2.16803E+1, 1.67628E+1
2.16968E+1, 1.64085E+1
2.17134E+1, 1.60542E+1
2.17300E+1, 1.56973E+1
2.17466E+1, 1.53383E+1
2.17632E+1, 1.49752E+1
2.17798E+1, 1.46155E+1
2.17964E+1, 1.42582E+1
2.18129E+1, 1.38977E+1
2.18295E+1, 1.35369E+1
2.18461E+1, 1.31831E+1
2.18627E+1, 1.28351E+1
2.18793E+1, 1.24867E+1
2.18959E+1, 1.21511E+1
2.19124E+1, 1.18237E+1
2.19290E+1, 1.14997E+1
2.19456E+1, 1.11808E+1
2.19622E+1, 1.08723E+1
2.19788E+1, 1.05723E+1
2.19954E+1, 1.02828E+1
2.20119E+1, 1.00071E+1
2.20285E+1, 9.73305E+0
2.20451E+1, 9.47168E+0
2.20617E+1, 9.21884E+0
2.20783E+1, 8.98245E+0
2.20949E+1, 8.74814E+0
2.21114E+1, 8.52538E+0
2.21280E+1, 8.31292E+0
2.21446E+1, 8.11091E+0
2.21612E+1, 7.91970E+0
2.21778E+1, 7.73572E+0
2.21944E+1, 7.55275E+0
2.22109E+1, 7.37316E+0
2.22275E+1, 7.21730E+0
2.22441E+1, 7.05945E+0
2.22607E+1, 6.91541E+0
2.22773E+1, 6.76607E+0
2.22939E+1, 6.62581E+0
2.23104E+1, 6.48271E+0
2.23270E+1, 6.35239E+0
2.23436E+1, 6.22103E+0
2.23602E+1, 6.10566E+0
2.23768E+1, 5.98560E+0
2.23934E+1, 5.86428E+0
2.24099E+1, 5.75459E+0
2.24265E+1, 5.63476E+0
2.24431E+1, 5.53862E+0
2.24597E+1, 5.43250E+0
2.24763E+1, 5.33982E+0
2.24929E+1, 5.23167E+0
2.25095E+1, 5.15119E+0
2.25260E+1, 5.04899E+0
2.25426E+1, 4.96216E+0
2.25592E+1, 4.86375E+0
2.25758E+1, 4.77498E+0
2.25924E+1, 4.67384E+0
2.26090E+1, 4.56249E+0
2.26255E+1, 4.46907E+0
2.26421E+1, 4.38912E+0
2.26587E+1, 4.30163E+0
2.26753E+1, 4.22518E+0
2.26919E+1, 4.15054E+0
2.27085E+1, 4.07102E+0
2.27250E+1, 4.00475E+0
2.27416E+1, 3.91549E+0
2.27582E+1, 3.86280E+0
2.27748E+1, 3.76384E+0
2.27914E+1, 3.71368E+0
2.28080E+1, 3.62866E+0
2.28245E+1, 3.58048E+0
2.28411E+1, 3.49115E+0
2.28577E+1, 3.43608E+0
2.28743E+1, 3.36347E+0
2.28909E+1, 3.29990E+0
2.29075E+1, 3.23539E+0
2.29240E+1, 3.18080E+0
2.29406E+1, 3.12672E+0
2.29572E+1, 3.05354E+0
2.29738E+1, 3.00510E+0
2.29904E+1, 2.92176E+0
2.30070E+1, 2.88419E+0
2.30235E+1, 2.79817E+0
2.30401E+1, 2.76847E+0
2.30567E+1, 2.69172E+0
2.30733E+1, 2.67003E+0
2.30899E+1, 2.59929E+0
2.31065E+1, 2.55750E+0
2.31230E+1, 2.49838E+0
2.31396E+1, 2.46217E+0
2.31562E+1, 2.41430E+0
2.31728E+1, 2.36065E+0
2.31894E+1, 2.31962E+0
2.32060E+1, 2.26217E+0
2.32226E+1, 2.23935E+0
2.32391E+1, 2.17584E+0
2.32557E+1, 2.15347E+0
2.32723E+1, 2.09859E+0
2.32889E+1, 2.08017E+0
2.33055E+1, 2.03196E+0
2.33221E+1, 2.01584E+0
2.33386E+1, 1.96444E+0
2.33552E+1, 1.93835E+0
2.33718E+1, 1.90964E+0
2.33884E+1, 1.87137E+0
2.34050E+1, 1.84285E+0
2.34216E+1, 1.81576E+0
2.34381E+1, 1.79676E+0
2.34547E+1, 1.75083E+0
2.34713E+1, 1.75322E+0
2.34879E+1, 1.70587E+0
2.35045E+1, 1.69839E+0
2.35211E+1, 1.66477E+0
2.35376E+1, 1.65259E+0
2.35542E+1, 1.61905E+0
2.35708E+1, 1.61122E+0
2.35874E+1, 1.58105E+0
2.36040E+1, 1.56057E+0
2.36206E+1, 1.55087E+0
2.36371E+1, 1.52975E+0
2.36537E+1, 1.52008E+0
2.36703E+1, 1.49298E+0
2.36869E+1, 1.48757E+0
2.37035E+1, 1.45970E+0
2.37201E+1, 1.45998E+0
2.37366E+1, 1.44570E+0
2.37532E+1, 1.44037E+0
2.37698E+1, 1.41612E+0
2.37864E+1, 1.41414E+0
2.38030E+1, 1.39842E+0
2.38196E+1, 1.38517E+0
2.38361E+1, 1.37605E+0
2.38527E+1, 1.36428E+0
2.38693E+1, 1.35148E+0
2.38859E+1, 1.32841E+0
2.39025E+1, 1.31892E+0
2.39191E+1, 1.30495E+0
2.39357E+1, 1.29789E+0
2.39522E+1, 1.27751E+0
2.39688E+1, 1.26062E+0
2.39854E+1, 1.23864E+0
2.40020E+1, 1.23234E+0
2.40186E+1, 1.21072E+0
2.40352E+1, 1.19356E+0
2.40517E+1, 1.17882E+0
2.40683E+1, 1.16114E+0
2.40849E+1, 1.13375E+0
2.41015E+1, 1.11782E+0
2.41181E+1, 1.09954E+0
2.41347E+1, 1.08809E+0
2.41512E+1, 1.07807E+0
2.41678E+1, 1.06281E+0
2.41844E+1, 1.04833E+0
2.42010E+1, 1.02942E+0
2.42176E+1, 1.01718E+0
2.42342E+1, 1.00337E+0
2.42507E+1, 9.94732E-1
2.42673E+1, 9.85427E-1
2.42839E+1, 9.83580E-1
2.43005E+1, 9.79808E-1
2.43171E+1, 9.72046E-1
2.43337E+1, 9.68269E-1
2.43502E+1, 9.68177E-1
2.43668E+1, 9.69511E-1
2.43834E+1, 9.65438E-1
2.44000E+1, 9.57643E-1
2.44166E+1, 9.50060E-1
2.44332E+1, 9.51082E-1
2.44497E+1, 9.47481E-1
2.44663E+1, 9.44536E-1
2.44829E+1, 9.43099E-1
2.44995E+1, 9.42685E-1
2.45161E+1, 9.44349E-1
2.45327E+1, 9.42729E-1
2.45492E+1, 9.43803E-1
2.45658E+1, 9.39480E-1
2.45824E+1, 9.42801E-1
2.45990E+1, 9.38004E-1
2.46156E+1, 9.32398E-1
2.46322E+1, 9.26069E-1
2.46488E+1, 9.24307E-1
2.46653E+1, 9.20486E-1
2.46819E+1, 9.13519E-1
2.46985E+1, 9.06596E-1
2.47151E+1, 8.96584E-1
2.47317E+1, 8.89548E-1
2.47483E+1, 8.79610E-1
2.47648E+1, 8.75354E-1
2.47814E+1, 8.67988E-1
2.47980E+1, 8.63825E-1
2.48146E+1, 8.49921E-1
2.48312E+1, 8.34668E-1
2.48478E+1, 8.21541E-1
2.48643E+1, 8.11249E-1
2.48809E+1, 7.98252E-1
2.48975E+1, 7.82303E-1
2.49141E+1, 7.70645E-1
2.49307E+1, 7.56064E-1
2.49473E+1, 7.39425E-1
2.49638E+1, 7.17205E-1
2.49804E+1, 6.97081E-1
2.49970E+1, 6.76631E-1
2.50136E+1, 6.61481E-1
2.50302E+1, 6.40396E-1
2.50468E+1, 6.19512E-1
2.50633E+1, 6.07196E-1
2.50799E+1, 5.99513E-1
2.50965E+1, 5.87102E-1
2.51131E+1, 5.63306E-1
2.51297E+1, 5.47621E-1
2.51463E+1, 5.32456E-1
2.51628E+1, 5.20169E-1
2.51794E+1, 5.05818E-1
2.51960E+1, 4.93656E-1
2.52126E+1, 4.78486E-1
2.52292E+1, 4.68690E-1
2.52458E+1, 4.59004E-1
2.52623E+1, 4.41013E-1
2.52789E+1, 4.28633E-1
2.52955E+1, 4.18421E-1
2.53121E+1, 4.12499E-1
2.53287E+1, 3.93258E-1
2.53453E+1, 3.84963E-1
2.53618E+1, 3.71260E-1
2.53784E+1, 3.71341E-1
2.53950E+1, 3.63743E-1
2.54116E+1, 3.49079E-1
2.54282E+1, 3.32663E-1
2.54448E+1, 3.36268E-1
2.54614E+1, 3.29787E-1
2.54779E+1, 3.25040E-1
2.54945E+1, 3.12724E-1
2.55111E+1, 3.06910E-1
2.55277E+1, 2.96073E-1
2.55443E+1, 2.89131E-1
2.55609E+1, 2.90783E-1
2.55774E+1, 2.75322E-1
2.55940E+1, 2.77572E-1
2.56106E+1, 2.61943E-1
2.56272E+1, 2.66791E-1
2.56438E+1, 2.52048E-1
2.56604E+1, 2.60233E-1
2.56769E+1, 2.45818E-1
2.56935E+1, 2.49560E-1
2.57101E+1, 2.38830E-1
2.57267E+1, 2.35061E-1
2.57433E+1, 2.25287E-1
2.57599E+1, 2.17964E-1
2.57764E+1, 2.20676E-1
2.57930E+1, 2.06093E-1
2.58096E+1, 2.14604E-1
2.58262E+1, 1.96422E-1
2.58428E+1, 2.05085E-1
2.58594E+1, 1.83518E-1
2.58759E+1, 1.93102E-1
2.58925E+1, 1.73442E-1
2.59091E+1, 1.79742E-1
2.59257E+1, 1.67759E-1
2.59423E+1, 1.62962E-1
2.59589E+1, 1.57073E-1
2.59754E+1, 1.56634E-1
2.59920E+1, 1.58339E-1
2.60086E+1, 1.54032E-1
2.60252E+1, 1.56338E-1
2.60418E+1, 1.46072E-1
2.60584E+1, 1.52315E-1
2.60749E+1, 1.32717E-1
2.60915E+1, 1.39386E-1
2.61081E+1, 1.24918E-1
2.61247E+1, 1.25560E-1
2.61413E+1, 1.10720E-1
2.61579E+1, 1.15453E-1
2.61745E+1, 1.05011E-1
2.61910E+1, 1.09237E-1
2.62076E+1, 1.04548E-1
2.62242E+1, 9.79207E-2
2.62408E+1, 9.73870E-2
2.62574E+1, 8.42847E-2
2.62740E+1, 9.09458E-2
2.62905E+1, 7.91162E-2
2.63071E+1, 8.33512E-2
2.63237E+1, 6.42098E-2
2.63403E+1, 7.61087E-2
2.63569E+1, 6.52304E-2
2.63735E+1, 7.14644E-2
2.63900E+1, 6.42443E-2
2.64066E+1, 7.05573E-2
2.64232E+1, 6.36756E-2
2.64398E+1, 5.97457E-2
2.64564E+1, 5.51769E-2
2.64730E+1, 4.03107E-2
2.64895E+1, 4.14124E-2
2.65061E+1, 3.27706E-2
2.65227E+1, 4.03047E-2
2.65393E+1, 2.04234E-2
2.65559E+1, 2.40954E-2
2.65725E+1, 1.43421E-2
2.65890E+1, 1.70969E-2
2.66056E+1, 1.28369E-3
2.66222E+1, 1.07310E-3
2.66388E+1, 0.00000E+0
##END=$$ End of the data block
