##TITLE=Spectrum
##JCAMP-DX=5.00 $$ chemotion-converter-app (1.1.0)
##DATA TYPE=SIZE EXCLUSION CHROMATOGRAPHY
##DATA CLASS=XYPOINTS
##ORIGIN=
##OWNER=
##XUNITS=MILLILITERS
##YUNITS=ARBITRARY UNITS
##NO_DEC=2
##SOFTWARE=WINGPC
##FIRSTX=1.96405E+1
##LASTX=2.66388E+1
##MINX=19.6405
##MAXX=26.6388
##MINY=0.0
##MAXY=5.47265
##NPOINTS=423
##FIRSTY=0.00000E+0
##XUNITS=MILLILITERS
##YUNITS=ARBITRARY UNITS
##XYPOINTS=(XY..XY)
1.96405E+1, 0.00000E+0
1.96571E+1, 2.31023E-3
1.96736E+1, 1.94275E-2
1.96902E+1, 2.51742E-2
1.97068E+1, 1.85319E-2
1.97234E+1, 2.33996E-2
1.97400E+1, 1.03557E-2
1.97566E+1, 2.26455E-2
1.97731E+1, 2.91922E-2
1.97897E+1, 4.92497E-2
1.98063E+1, 5.72573E-2
1.98229E+1, 5.87600E-2
1.98395E+1, 6.91424E-2
1.98561E+1, 6.88398E-2
1.98726E+1, 8.15045E-2
1.98892E+1, 9.43930E-2
1.99058E+1, 1.23566E-1
1.99224E+1, 1.41736E-1
1.99390E+1, 1.40435E-1
1.99556E+1, 1.71389E-1
1.99721E+1, 1.98208E-1
1.99887E+1, 1.81697E-1
2.00053E+1, 2.06654E-1
2.00219E+1, 2.21406E-1
2.00385E+1, 2.31740E-1
2.00551E+1, 2.57609E-1
2.00716E+1, 2.88791E-1
2.00882E+1, 3.12812E-1
2.01048E+1, 3.53777E-1
2.01214E+1, 3.71949E-1
2.01380E+1, 3.95747E-1
2.01546E+1, 4.22815E-1
2.01711E+1, 4.55600E-1
2.01877E+1, 5.02501E-1
2.02043E+1, 5.18872E-1
2.02209E+1, 5.64463E-1
2.02375E+1, 6.21399E-1
2.02541E+1, 6.64715E-1
2.02706E+1, 7.18402E-1
2.02872E+1, 7.67388E-1
2.03038E+1, 8.33301E-1
2.03204E+1, 9.00191E-1
2.03370E+1, 9.80316E-1
2.03536E+1, 1.04587E+0
2.03702E+1, 1.14236E+0
2.03867E+1, 1.23289E+0
2.04033E+1, 1.32669E+0
2.04199E+1, 1.43701E+0
2.04365E+1, 1.56187E+0
2.04531E+1, 1.67613E+0
2.04697E+1, 1.81099E+0
2.04862E+1, 1.96068E+0
2.05028E+1, 2.09292E+0
2.05194E+1, 2.23772E+0
2.05360E+1, 2.40305E+0
2.05526E+1, 2.57614E+0
2.05692E+1, 2.74227E+0
2.05857E+1, 2.91127E+0
2.06023E+1, 3.08738E+0
2.06189E+1, 3.25962E+0
2.06355E+1, 3.45040E+0
2.06521E+1, 3.63860E+0
2.06687E+1, 3.82055E+0
2.06852E+1, 3.98826E+0
2.07018E+1, 4.15874E+0
2.07184E+1, 4.34354E+0
2.07350E+1, 4.51998E+0
2.07516E+1, 4.70950E+0
2.07682E+1, 4.88020E+0
2.07847E+1, 5.01727E+0
2.08013E+1, 5.14766E+0
2.08179E+1, 5.24920E+0
2.08345E+1, 5.33806E+0
2.08511E+1, 5.41003E+0
2.08677E+1, 5.46105E+0
2.08842E+1, 5.47265E+0
2.09008E+1, 5.44940E+0
2.09174E+1, 5.40835E+0
2.09340E+1, 5.35181E+0
2.09506E+1, 5.27899E+0
2.09672E+1, 5.21196E+0
2.09837E+1, 5.15829E+0
2.10003E+1, 5.11375E+0
2.10169E+1, 5.08756E+0
2.10335E+1, 5.06976E+0
2.10501E+1, 5.05770E+0
2.10667E+1, 5.06325E+0
2.10833E+1, 5.07016E+0
2.10998E+1, 5.08490E+0
2.11164E+1, 5.10162E+0
2.11330E+1, 5.12033E+0
2.11496E+1, 5.13036E+0
2.11662E+1, 5.13814E+0
2.11828E+1, 5.14396E+0
2.11993E+1, 5.15010E+0
2.12159E+1, 5.15501E+0
2.12325E+1, 5.15199E+0
2.12491E+1, 5.14167E+0
2.12657E+1, 5.12375E+0
2.12823E+1, 5.08988E+0
2.12988E+1, 5.04953E+0
2.13154E+1, 5.01419E+0
2.13320E+1, 4.97162E+0
2.13486E+1, 4.91623E+0
2.13652E+1, 4.85068E+0
2.13818E+1, 4.79049E+0
2.13983E+1, 4.73074E+0
2.14149E+1, 4.65936E+0
2.14315E+1, 4.57620E+0
2.14481E+1, 4.49152E+0
2.14647E+1, 4.41484E+0
2.14813E+1, 4.33055E+0
2.14978E+1, 4.24042E+0
2.15144E+1, 4.15149E+0
2.15310E+1, 4.04490E+0
2.15476E+1, 3.93057E+0
2.15642E+1, 3.82513E+0
2.15808E+1, 3.72871E+0
2.15973E+1, 3.63646E+0
2.16139E+1, 3.53571E+0
2.16305E+1, 3.43496E+0
2.16471E+1, 3.34393E+0
2.16637E+1, 3.25343E+0
2.16803E+1, 3.16148E+0
2.16968E+1, 3.06808E+0
2.17134E+1, 2.96951E+0
2.17300E+1, 2.87583E+0
2.17466E+1, 2.78887E+0
2.17632E+1, 2.69309E+0
2.17798E+1, 2.60168E+0
2.17964E+1, 2.52137E+0
2.18129E+1, 2.43281E+0
2.18295E+1, 2.34804E+0
2.18461E+1, 2.27449E+0
2.18627E+1, 2.19963E+0
2.18793E+1, 2.12189E+0
2.18959E+1, 2.04493E+0
2.19124E+1, 1.97249E+0
2.19290E+1, 1.90275E+0
2.19456E+1, 1.83640E+0
2.19622E+1, 1.76731E+0
2.19788E+1, 1.69905E+0
2.19954E+1, 1.64246E+0
2.20119E+1, 1.58736E+0
2.20285E+1, 1.53205E+0
2.20451E+1, 1.47882E+0
2.20617E+1, 1.42868E+0
2.20783E+1, 1.38544E+0
2.20949E+1, 1.33668E+0
2.21114E+1, 1.28256E+0
2.21280E+1, 1.24786E+0
2.21446E+1, 1.20732E+0
2.21612E+1, 1.17316E+0
2.21778E+1, 1.13617E+0
2.21944E+1, 1.09485E+0
2.22109E+1, 1.06608E+0
2.22275E+1, 1.04133E+0
2.22441E+1, 1.01003E+0
2.22607E+1, 9.80011E-1
2.22773E+1, 9.52299E-1
2.22939E+1, 9.22841E-1
2.23104E+1, 8.96957E-1
2.23270E+1, 8.65609E-1
2.23436E+1, 8.33696E-1
2.23602E+1, 8.01763E-1
2.23768E+1, 7.77307E-1
2.23934E+1, 7.65884E-1
2.24099E+1, 7.42801E-1
2.24265E+1, 7.26447E-1
2.24431E+1, 7.05709E-1
2.24597E+1, 6.80107E-1
2.24763E+1, 6.58176E-1
2.24929E+1, 6.34247E-1
2.25095E+1, 6.16082E-1
2.25260E+1, 5.95340E-1
2.25426E+1, 5.67788E-1
2.25592E+1, 5.55318E-1
2.25758E+1, 5.44412E-1
2.25924E+1, 5.23210E-1
2.26090E+1, 5.04316E-1
2.26255E+1, 4.86861E-1
2.26421E+1, 4.59117E-1
2.26587E+1, 4.47373E-1
2.26753E+1, 4.38766E-1
2.26919E+1, 4.28870E-1
2.27085E+1, 4.13171E-1
2.27250E+1, 4.02315E-1
2.27416E+1, 3.83534E-1
2.27582E+1, 3.84875E-1
2.27748E+1, 3.79759E-1
2.27914E+1, 3.59730E-1
2.28080E+1, 3.45836E-1
2.28245E+1, 3.17688E-1
2.28411E+1, 3.04112E-1
2.28577E+1, 2.96675E-1
2.28743E+1, 2.84498E-1
2.28909E+1, 2.65497E-1
2.29075E+1, 2.65320E-1
2.29240E+1, 2.62258E-1
2.29406E+1, 2.43024E-1
2.29572E+1, 2.33690E-1
2.29738E+1, 2.28014E-1
2.29904E+1, 2.15706E-1
2.30070E+1, 1.96663E-1
2.30235E+1, 1.98323E-1
2.30401E+1, 1.97976E-1
2.30567E+1, 1.69915E-1
2.30733E+1, 1.65595E-1
2.30899E+1, 1.60824E-1
2.31065E+1, 1.53408E-1
2.31230E+1, 1.61401E-1
2.31396E+1, 1.49638E-1
2.31562E+1, 1.29296E-1
2.31728E+1, 1.12876E-1
2.31894E+1, 9.91862E-2
2.32060E+1, 9.61728E-2
2.32226E+1, 1.02729E-1
2.32391E+1, 9.53977E-2
2.32557E+1, 9.47556E-2
2.32723E+1, 7.71620E-2
2.32889E+1, 7.35721E-2
2.33055E+1, 8.53862E-2
2.33221E+1, 7.32647E-2
2.33386E+1, 5.90235E-2
2.33552E+1, 5.19652E-2
2.33718E+1, 5.59595E-2
2.33884E+1, 5.05648E-2
2.34050E+1, 4.76673E-2
2.34216E+1, 3.60592E-2
2.34381E+1, 3.51924E-2
2.34547E+1, 3.48241E-2
2.34713E+1, 3.47626E-2
2.34879E+1, 2.80178E-2
2.35045E+1, 2.91366E-2
2.35211E+1, 1.90462E-2
2.35376E+1, 2.13774E-2
2.35542E+1, 2.32782E-2
2.35708E+1, 2.00114E-2
2.35874E+1, 1.45508E-2
2.36040E+1, 1.63460E-2
2.36206E+1, 2.05003E-2
2.36371E+1, 1.59795E-2
2.36537E+1, 9.59857E-3
2.36703E+1, 2.40327E-3
2.36869E+1, 9.81688E-4
2.37035E+1, 1.09384E-4
2.37201E+1, 0.00000E+0
2.37366E+1, 0.00000E+0
2.37532E+1, 0.00000E+0
2.37698E+1, 0.00000E+0
2.37864E+1, 0.00000E+0
2.38030E+1, 0.00000E+0
2.38196E+1, 0.00000E+0
2.38361E+1, 0.00000E+0
2.38527E+1, 0.00000E+0
2.38693E+1, 0.00000E+0
2.38859E+1, 0.00000E+0
2.39025E+1, 0.00000E+0
2.39191E+1, 0.00000E+0
2.39357E+1, 0.00000E+0
2.39522E+1, 0.00000E+0
2.39688E+1, 0.00000E+0
2.39854E+1, 0.00000E+0
2.40020E+1, 0.00000E+0
2.40186E+1, 0.00000E+0
2.40352E+1, 0.00000E+0
2.40517E+1, 0.00000E+0
2.40683E+1, 0.00000E+0
2.40849E+1, 0.00000E+0
2.41015E+1, 0.00000E+0
2.41181E+1, 0.00000E+0
2.41347E+1, 0.00000E+0
2.41512E+1, 0.00000E+0
2.41678E+1, 0.00000E+0
2.41844E+1, 0.00000E+0
2.42010E+1, 0.00000E+0
2.42176E+1, 0.00000E+0
2.42342E+1, 0.00000E+0
2.42507E+1, 0.00000E+0
2.42673E+1, 0.00000E+0
2.42839E+1, 0.00000E+0
2.43005E+1, 0.00000E+0
2.43171E+1, 0.00000E+0
2.43337E+1, 0.00000E+0
2.43502E+1, 0.00000E+0
2.43668E+1, 0.00000E+0
2.43834E+1, 0.00000E+0
2.44000E+1, 0.00000E+0
2.44166E+1, 0.00000E+0
2.44332E+1, 0.00000E+0
2.44497E+1, 0.00000E+0
2.44663E+1, 0.00000E+0
2.44829E+1, 0.00000E+0
2.44995E+1, 0.00000E+0
2.45161E+1, 0.00000E+0
2.45327E+1, 0.00000E+0
2.45492E+1, 0.00000E+0
2.45658E+1, 0.00000E+0
2.45824E+1, 0.00000E+0
2.45990E+1, 0.00000E+0
2.46156E+1, 0.00000E+0
2.46322E+1, 0.00000E+0
2.46488E+1, 0.00000E+0
2.46653E+1, 0.00000E+0
2.46819E+1, 0.00000E+0
2.46985E+1, 0.00000E+0
2.47151E+1, 0.00000E+0
2.47317E+1, 0.00000E+0
2.47483E+1, 0.00000E+0
2.47648E+1, 0.00000E+0
2.47814E+1, 0.00000E+0
2.47980E+1, 0.00000E+0
2.48146E+1, 0.00000E+0
2.48312E+1, 0.00000E+0
2.48478E+1, 0.00000E+0
2.48643E+1, 0.00000E+0
2.48809E+1, 0.00000E+0
2.48975E+1, 0.00000E+0
2.49141E+1, 0.00000E+0
2.49307E+1, 0.00000E+0
2.49473E+1, 0.00000E+0
2.49638E+1, 0.00000E+0
2.49804E+1, 0.00000E+0
2.49970E+1, 0.00000E+0
2.50136E+1, 0.00000E+0
2.50302E+1, 0.00000E+0
2.50468E+1, 0.00000E+0
2.50633E+1, 0.00000E+0
2.50799E+1, 0.00000E+0
2.50965E+1, 0.00000E+0
2.51131E+1, 0.00000E+0
2.51297E+1, 0.00000E+0
2.51463E+1, 0.00000E+0
2.51628E+1, 0.00000E+0
2.51794E+1, 0.00000E+0
2.51960E+1, 0.00000E+0
2.52126E+1, 0.00000E+0
2.52292E+1, 0.00000E+0
2.52458E+1, 0.00000E+0
2.52623E+1, 0.00000E+0
2.52789E+1, 0.00000E+0
2.52955E+1, 0.00000E+0
2.53121E+1, 0.00000E+0
2.53287E+1, 0.00000E+0
2.53453E+1, 0.00000E+0
2.53618E+1, 0.00000E+0
2.53784E+1, 0.00000E+0
2.53950E+1, 0.00000E+0
2.54116E+1, 0.00000E+0
2.54282E+1, 0.00000E+0
2.54448E+1, 0.00000E+0
2.54614E+1, 0.00000E+0
2.54779E+1, 0.00000E+0
2.54945E+1, 0.00000E+0
2.55111E+1, 0.00000E+0
2.55277E+1, 0.00000E+0
2.55443E+1, 0.00000E+0
2.55609E+1, 0.00000E+0
2.55774E+1, 0.00000E+0
2.55940E+1, 0.00000E+0
2.56106E+1, 0.00000E+0
2.56272E+1, 0.00000E+0
2.56438E+1, 0.00000E+0
2.56604E+1, 0.00000E+0
2.56769E+1, 0.00000E+0
2.56935E+1, 0.00000E+0
2.57101E+1, 0.00000E+0
2.57267E+1, 0.00000E+0
2.57433E+1, 0.00000E+0
2.57599E+1, 0.00000E+0
2.57764E+1, 0.00000E+0
2.57930E+1, 0.00000E+0
2.58096E+1, 0.00000E+0
2.58262E+1, 0.00000E+0
2.58428E+1, 0.00000E+0
2.58594E+1, 0.00000E+0
2.58759E+1, 0.00000E+0
2.58925E+1, 0.00000E+0
2.59091E+1, 0.00000E+0
2.59257E+1, 0.00000E+0
2.59423E+1, 0.00000E+0
2.59589E+1, 0.00000E+0
2.59754E+1, 0.00000E+0
2.59920E+1, 0.00000E+0
2.60086E+1, 0.00000E+0
2.60252E+1, 0.00000E+0
2.60418E+1, 0.00000E+0
2.60584E+1, 0.00000E+0
2.60749E+1, 0.00000E+0
2.60915E+1, 0.00000E+0
2.61081E+1, 0.00000E+0
2.61247E+1, 0.00000E+0
2.61413E+1, 0.00000E+0
2.61579E+1, 0.00000E+0
2.61745E+1, 0.00000E+0
2.61910E+1, 0.00000E+0
2.62076E+1, 0.00000E+0
2.62242E+1, 0.00000E+0
2.62408E+1, 0.00000E+0
2.62574E+1, 0.00000E+0
2.62740E+1, 0.00000E+0
2.62905E+1, 0.00000E+0
2.63071E+1, 0.00000E+0
2.63237E+1, 0.00000E+0
2.63403E+1, 0.00000E+0
2.63569E+1, 0.00000E+0
2.63735E+1, 0.00000E+0
2.63900E+1, 0.00000E+0
2.64066E+1, 0.00000E+0
2.64232E+1, 0.00000E+0
2.64398E+1, 0.00000E+0
2.64564E+1, 0.00000E+0
2.64730E+1, 0.00000E+0
2.64895E+1, 0.00000E+0
2.65061E+1, 0.00000E+0
2.65227E+1, 0.00000E+0
2.65393E+1, 0.00000E+0
2.65559E+1, 0.00000E+0
2.65725E+1, 0.00000E+0
2.65890E+1, 8.15626E-6
2.66056E+1, 6.40803E-4
2.66222E+1, 3.94828E-4
2.66388E+1, -0.00000E+0
##END=$$ End of the data block
