3997.84587,0.99685
3995.79675,0.99701
3993.74762,0.99717
3991.69849,0.99716
3989.64937,0.99741
3987.60024,0.99776
3985.55111,0.99780
3983.50199,0.99772
3981.45286,0.99778
3979.40373,0.99805
3977.35461,0.99829
3975.30548,0.99839
3973.25635,0.99851
3971.20723,0.99842
3969.15810,0.99807
3967.10897,0.99788
3965.05985,0.99798
3963.01072,0.99810
3960.96159,0.99824
3958.91247,0.99865
3956.86334,0.99909
3954.81421,0.99930
3952.76509,0.99956
3950.71596,0.99976
3948.66683,0.99973
3946.61771,0.99986
3944.56858,1.00023
3942.51946,1.00050
3940.47033,1.00064
3938.42120,1.00093
3936.37208,1.00129
3934.32295,1.00136
3932.27382,1.00112
3930.22470,1.00091
3928.17557,1.00091
3926.12644,1.00104
3924.07732,1.00110
3922.02819,1.00112
3919.97906,1.00133
3917.92994,1.00144
3915.88081,1.00143
3913.83168,1.00173
3911.78256,1.00214
3909.73343,1.00209
3907.68430,1.00163
3905.63518,1.00139
3903.58605,1.00134
3901.53692,1.00101
3899.48780,1.00093
3897.43867,1.00122
3895.38954,1.00158
3893.34042,1.00185
3891.29129,1.00203
3889.24217,1.00224
3887.19304,1.00215
3885.14391,1.00182
3883.09479,1.00179
3881.04566,1.00190
3878.99653,1.00196
3876.94741,1.00197
3874.89828,1.00162
3872.84915,1.00109
3870.80003,1.00124
3868.75090,1.00182
3866.70177,1.00183
3864.65265,1.00144
3862.60352,1.00144
3860.55439,1.00189
3858.50527,1.00216
3856.45614,1.00204
3854.40701,1.00190
3852.35789,1.00205
3850.30876,1.00212
3848.25963,1.00216
3846.21051,1.00217
3844.16138,1.00201
3842.11225,1.00152
3840.06313,1.00081
3838.01400,1.00073
3835.96488,1.00116
3833.91575,1.00121
3831.86662,1.00126
3829.81750,1.00169
3827.76837,1.00216
3825.71924,1.00230
3823.67012,1.00198
3821.62099,1.00165
3819.57186,1.00177
3817.52274,1.00198
3815.47361,1.00226
3813.42448,1.00237
3811.37536,1.00211
3809.32623,1.00208
3807.27710,1.00237
3805.22798,1.00222
3803.17885,1.00186
3801.12972,1.00194
3799.08060,1.00202
3797.03147,1.00175
3794.98234,1.00163
3792.93322,1.00187
3790.88409,1.00200
3788.83496,1.00207
3786.78584,1.00242
3784.73671,1.00283
3782.68759,1.00284
3780.63846,1.00244
3778.58933,1.00220
3776.54021,1.00238
3774.49108,1.00261
3772.44195,1.00256
3770.39283,1.00238
3768.34370,1.00242
3766.29457,1.00219
3764.24545,1.00181
3762.19632,1.00186
3760.14719,1.00204
3758.09807,1.00192
3756.04894,1.00167
3753.99981,1.00149
3751.95069,1.00127
3749.90156,1.00118
3747.85243,1.00139
3745.80331,1.00142
3743.75418,1.00147
3741.70505,1.00151
3739.65593,1.00104
3737.60680,1.00039
3735.55767,1.00042
3733.50855,1.00123
3731.45942,1.00194
3729.41030,1.00201
3727.36117,1.00145
3725.31204,1.00088
3723.26292,1.00099
3721.21379,1.00137
3719.16466,1.00170
3717.11554,1.00197
3715.06641,1.00185
3713.01728,1.00141
3710.96816,1.00122
3708.91903,1.00138
3706.86990,1.00175
3704.82078,1.00204
3702.77165,1.00205
3700.72252,1.00215
3698.67340,1.00245
3696.62427,1.00255
3694.57514,1.00240
3692.52602,1.00196
3690.47689,1.00150
3688.42776,1.00180
3686.37864,1.00231
3684.32951,1.00243
3682.28039,1.00235
3680.23126,1.00214
3678.18213,1.00204
3676.13301,1.00212
3674.08388,1.00204
3672.03475,1.00204
3669.98563,1.00200
3667.93650,1.00167
3665.88737,1.00143
3663.83825,1.00145
3661.78912,1.00170
3659.73999,1.00182
3657.69087,1.00164
3655.64174,1.00181
3653.59261,1.00203
3651.54349,1.00102
3649.49436,0.99929
3647.44523,0.99944
3645.39611,1.00051
3643.34698,1.00084
3641.29785,1.00061
3639.24873,1.00023
3637.19960,1.00002
3635.15047,1.00002
3633.10135,1.00015
3631.05222,1.00005
3629.00310,0.99967
3626.95397,0.99992
3624.90484,1.00036
3622.85572,1.00038
3620.80659,0.99995
3618.75746,0.99917
3616.70834,0.99874
3614.65921,0.99865
3612.61008,0.99860
3610.56096,0.99867
3608.51183,0.99857
3606.46270,0.99815
3604.41358,0.99784
3602.36445,0.99765
3600.31532,0.99733
3598.26620,0.99719
3596.21707,0.99760
3594.16794,0.99796
3592.11882,0.99774
3590.06969,0.99703
3588.02056,0.99625
3585.97144,0.99626
3583.92231,0.99649
3581.87318,0.99644
3579.82406,0.99658
3577.77493,0.99661
3575.72581,0.99617
3573.67668,0.99580
3571.62755,0.99557
3569.57843,0.99512
3567.52930,0.99443
3565.48017,0.99402
3563.43105,0.99409
3561.38192,0.99430
3559.33279,0.99451
3557.28367,0.99467
3555.23454,0.99450
3553.18541,0.99388
3551.13629,0.99335
3549.08716,0.99317
3547.03803,0.99323
3544.98891,0.99331
3542.93978,0.99303
3540.89065,0.99275
3538.84153,0.99269
3536.79240,0.99243
3534.74327,0.99210
3532.69415,0.99188
3530.64502,0.99141
3528.59589,0.99074
3526.54677,0.99026
3524.49764,0.99000
3522.44852,0.98986
3520.39939,0.98983
3518.35026,0.98973
3516.30114,0.98935
3514.25201,0.98904
3512.20288,0.98890
3510.15376,0.98867
3508.10463,0.98836
3506.05550,0.98813
3504.00638,0.98808
3501.95725,0.98812
3499.90812,0.98810
3497.85900,0.98811
3495.80987,0.98803
3493.76074,0.98771
3491.71162,0.98758
3489.66249,0.98772
3487.61336,0.98759
3485.56424,0.98705
3483.51511,0.98666
3481.46598,0.98664
3479.41686,0.98670
3477.36773,0.98678
3475.31860,0.98692
3473.26948,0.98696
3471.22035,0.98667
3469.17123,0.98625
3467.12210,0.98623
3465.07297,0.98635
3463.02385,0.98626
3460.97472,0.98615
3458.92559,0.98626
3456.87647,0.98654
3454.82734,0.98665
3452.77821,0.98653
3450.72909,0.98646
3448.67996,0.98646
3446.63083,0.98644
3444.58171,0.98640
3442.53258,0.98636
3440.48345,0.98634
3438.43433,0.98654
3436.38520,0.98715
3434.33607,0.98757
3432.28695,0.98744
3430.23782,0.98733
3428.18869,0.98725
3426.13957,0.98702
3424.09044,0.98700
3422.04131,0.98740
3419.99219,0.98794
3417.94306,0.98808
3415.89394,0.98800
3413.84481,0.98809
3411.79568,0.98825
3409.74656,0.98825
3407.69743,0.98819
3405.64830,0.98833
3403.59918,0.98876
3401.55005,0.98921
3399.50092,0.98927
3397.45180,0.98903
3395.40267,0.98892
3393.35354,0.98917
3391.30442,0.98973
3389.25529,0.99013
3387.20616,0.99012
3385.15704,0.99014
3383.10791,0.99052
3381.05878,0.99105
3379.00966,0.99122
3376.96053,0.99108
3374.91140,0.99105
3372.86228,0.99111
3370.81315,0.99124
3368.76403,0.99157
3366.71490,0.99205
3364.66577,0.99253
3362.61665,0.99278
3360.56752,0.99285
3358.51839,0.99297
3356.46927,0.99318
3354.42014,0.99338
3352.37101,0.99358
3350.32189,0.99375
3348.27276,0.99379
3346.22363,0.99376
3344.17451,0.99392
3342.12538,0.99427
3340.07625,0.99442
3338.02713,0.99435
3335.97800,0.99442
3333.92887,0.99467
3331.87975,0.99509
3329.83062,0.99556
3327.78149,0.99562
3325.73237,0.99534
3323.68324,0.99522
3321.63411,0.99515
3319.58499,0.99525
3317.53586,0.99575
3315.48674,0.99610
3313.43761,0.99611
3311.38848,0.99612
3309.33936,0.99618
3307.29023,0.99644
3305.24110,0.99678
3303.19198,0.99687
3301.14285,0.99681
3299.09372,0.99676
3297.04460,0.99669
3294.99547,0.99666
3292.94634,0.99675
3290.89722,0.99706
3288.84809,0.99740
3286.79896,0.99734
3284.74984,0.99698
3282.70071,0.99678
3280.65158,0.99685
3278.60246,0.99709
3276.55333,0.99737
3274.50420,0.99756
3272.45508,0.99771
3270.40595,0.99778
3268.35682,0.99762
3266.30770,0.99734
3264.25857,0.99717
3262.20945,0.99718
3260.16032,0.99719
3258.11119,0.99707
3256.06207,0.99691
3254.01294,0.99676
3251.96381,0.99684
3249.91469,0.99722
3247.86556,0.99769
3245.81643,0.99811
3243.76731,0.99838
3241.71818,0.99839
3239.66905,0.99820
3237.61993,0.99805
3235.57080,0.99803
3233.52167,0.99809
3231.47255,0.99821
3229.42342,0.99837
3227.37429,0.99863
3225.32517,0.99887
3223.27604,0.99896
3221.22691,0.99885
3219.17779,0.99877
3217.12866,0.99896
3215.07953,0.99911
3213.03041,0.99907
3210.98128,0.99908
3208.93216,0.99921
3206.88303,0.99925
3204.83390,0.99918
3202.78478,0.99924
3200.73565,0.99934
3198.68652,0.99954
3196.63740,0.99984
3194.58827,0.99971
3192.53914,0.99920
3190.49002,0.99893
3188.44089,0.99899
3186.39176,0.99927
3184.34264,0.99960
3182.29351,0.99966
3180.24438,0.99945
3178.19526,0.99934
3176.14613,0.99960
3174.09700,0.99994
3172.04788,0.99993
3169.99875,0.99969
3167.94962,0.99956
3165.90050,0.99951
3163.85137,0.99922
3161.80224,0.99882
3159.75312,0.99882
3157.70399,0.99926
3155.65487,0.99967
3153.60574,0.99981
3151.55661,0.99978
3149.50749,0.99962
3147.45836,0.99945
3145.40923,0.99931
3143.36011,0.99908
3141.31098,0.99888
3139.26185,0.99885
3137.21273,0.99893
3135.16360,0.99904
3133.11447,0.99908
3131.06535,0.99899
3129.01622,0.99887
3126.96709,0.99890
3124.91797,0.99883
3122.86884,0.99851
3120.81971,0.99818
3118.77059,0.99810
3116.72146,0.99820
3114.67233,0.99824
3112.62321,0.99803
3110.57408,0.99781
3108.52495,0.99782
3106.47583,0.99780
3104.42670,0.99762
3102.37758,0.99739
3100.32845,0.99726
3098.27932,0.99729
3096.23020,0.99719
3094.18107,0.99695
3092.13194,0.99682
3090.08282,0.99667
3088.03369,0.99630
3085.98456,0.99594
3083.93544,0.99580
3081.88631,0.99567
3079.83718,0.99547
3077.78806,0.99551
3075.73893,0.99594
3073.68980,0.99649
3071.64068,0.99666
3069.59155,0.99647
3067.54242,0.99631
3065.49330,0.99634
3063.44417,0.99660
3061.39504,0.99684
3059.34592,0.99683
3057.29679,0.99675
3055.24767,0.99678
3053.19854,0.99687
3051.14941,0.99690
3049.10029,0.99683
3047.05116,0.99673
3045.00203,0.99670
3042.95291,0.99661
3040.90378,0.99639
3038.85465,0.99608
3036.80553,0.99575
3034.75640,0.99556
3032.70727,0.99544
3030.65815,0.99530
3028.60902,0.99514
3026.55989,0.99462
3024.51077,0.99387
3022.46164,0.99344
3020.41251,0.99322
3018.36339,0.99288
3016.31426,0.99245
3014.26513,0.99213
3012.21601,0.99191
3010.16688,0.99159
3008.11775,0.99125
3006.06863,0.99099
3004.01950,0.99065
3001.97038,0.99015
2999.92125,0.98955
2997.87212,0.98898
2995.82300,0.98848
2993.77387,0.98781
2991.72474,0.98676
2989.67562,0.98556
2987.62649,0.98454
2985.57736,0.98364
2983.52824,0.98257
2981.47911,0.98120
2979.42998,0.97977
2977.38086,0.97847
2975.33173,0.97713
2973.28260,0.97561
2971.23348,0.97387
2969.18435,0.97186
2967.13522,0.96945
2965.08610,0.96610
2963.03697,0.96152
2960.98784,0.95597
2958.93872,0.94957
2956.88959,0.94256
2954.84046,0.93579
2952.79134,0.92936
2950.74221,0.92283
2948.69309,0.91696
2946.64396,0.91325
2944.59483,0.91229
2942.54571,0.91315
2940.49658,0.91425
2938.44745,0.91458
2936.39833,0.91359
2934.34920,0.91078
2932.30007,0.90624
2930.25095,0.90053
2928.20182,0.89396
2926.15269,0.88678
2924.10357,0.87951
2922.05444,0.87281
2920.00531,0.86681
2917.95619,0.86032
2915.90706,0.85138
2913.85793,0.83851
2911.80881,0.82139
2909.75968,0.80100
2907.71055,0.77905
2905.66143,0.75661
2903.61230,0.73334
2901.56317,0.70804
2899.51405,0.67998
2897.46492,0.64913
2895.41580,0.61689
2893.36667,0.58652
2891.31754,0.56129
2889.26842,0.54263
2887.21929,0.53016
2885.17016,0.52306
2883.12104,0.52084
2881.07191,0.52236
2879.02278,0.52542
2876.97366,0.52927
2874.92453,0.53572
2872.87540,0.54601
2870.82628,0.55841
2868.77715,0.56966
2866.72802,0.57700
2864.67890,0.57920
2862.62977,0.57704
2860.58064,0.57377
2858.53152,0.57486
2856.48239,0.58587
2854.43326,0.60868
2852.38414,0.63989
2850.33501,0.67380
2848.28588,0.70561
2846.23676,0.73274
2844.18763,0.75495
2842.13851,0.77289
2840.08938,0.78716
2838.04025,0.79846
2835.99113,0.80741
2833.94200,0.81444
2831.89287,0.81992
2829.84375,0.82424
2827.79462,0.82770
2825.74549,0.83054
2823.69637,0.83313
2821.64724,0.83590
2819.59811,0.83896
2817.54899,0.84227
2815.49986,0.84592
2813.45073,0.84975
2811.40161,0.85312
2809.35248,0.85540
2807.30335,0.85694
2805.25423,0.85917
2803.20510,0.86344
2801.15597,0.87021
2799.10685,0.87892
2797.05772,0.88827
2795.00859,0.89708
2792.95947,0.90507
2790.91034,0.91218
2788.86122,0.91834
2786.81209,0.92384
2784.76296,0.92901
2782.71384,0.93374
2780.66471,0.93779
2778.61558,0.94126
2776.56646,0.94436
2774.51733,0.94703
2772.46820,0.94937
2770.41908,0.95151
2768.36995,0.95337
2766.32082,0.95481
2764.27170,0.95586
2762.22257,0.95663
2760.17344,0.95709
2758.12432,0.95721
2756.07519,0.95697
2754.02606,0.95626
2751.97694,0.95490
2749.92781,0.95249
2747.87868,0.94829
2745.82956,0.94179
2743.78043,0.93442
2741.73131,0.92936
2739.68218,0.92812
2737.63305,0.92974
2735.58393,0.93397
2733.53480,0.94146
2731.48567,0.95089
2729.43655,0.95921
2727.38742,0.96457
2725.33829,0.96742
2723.28917,0.96904
2721.24004,0.97018
2719.19091,0.97099
2717.14179,0.97139
2715.09266,0.97159
2713.04353,0.97177
2710.99441,0.97193
2708.94528,0.97199
2706.89615,0.97208
2704.84703,0.97243
2702.79790,0.97280
2700.74877,0.97252
2698.69965,0.97080
2696.65052,0.96775
2694.60139,0.96578
2692.55227,0.96754
2690.50314,0.97243
2688.45402,0.97768
2686.40489,0.98179
2684.35576,0.98472
2682.30664,0.98672
2680.25751,0.98810
2678.20838,0.98914
2676.15926,0.99000
2674.11013,0.99077
2672.06100,0.99138
2670.01188,0.99182
2667.96275,0.99222
2665.91362,0.99241
2663.86450,0.99248
2661.81537,0.99267
2659.76624,0.99291
2657.71712,0.99308
2655.66799,0.99314
2653.61886,0.99295
2651.56974,0.99257
2649.52061,0.99247
2647.47148,0.99286
2645.42236,0.99335
2643.37323,0.99359
2641.32410,0.99349
2639.27498,0.99326
2637.22585,0.99321
2635.17673,0.99312
2633.12760,0.99282
2631.07847,0.99274
2629.02935,0.99291
2626.98022,0.99299
2624.93109,0.99302
2622.88197,0.99315
2620.83284,0.99341
2618.78371,0.99367
2616.73459,0.99380
2614.68546,0.99394
2612.63633,0.99396
2610.58721,0.99371
2608.53808,0.99343
2606.48895,0.99345
2604.43983,0.99356
2602.39070,0.99354
2600.34157,0.99367
2598.29245,0.99377
2596.24332,0.99366
2594.19419,0.99370
2592.14507,0.99364
2590.09594,0.99330
2588.04681,0.99310
2585.99769,0.99334
2583.94856,0.99371
2581.89944,0.99381
2579.85031,0.99389
2577.80118,0.99427
2575.75206,0.99463
2573.70293,0.99472
2571.65380,0.99500
2569.60468,0.99580
2567.55555,0.99656
2565.50642,0.99702
2563.45730,0.99736
2561.40817,0.99753
2559.35904,0.99768
2557.30992,0.99804
2555.26079,0.99855
2553.21166,0.99886
2551.16254,0.99870
2549.11341,0.99825
2547.06428,0.99786
2545.01516,0.99759
2542.96603,0.99742
2540.91690,0.99747
2538.86778,0.99764
2536.81865,0.99769
2534.76952,0.99758
2532.72040,0.99750
2530.67127,0.99749
2528.62215,0.99731
2526.57302,0.99678
2524.52389,0.99623
2522.47477,0.99591
2520.42564,0.99575
2518.37651,0.99574
2516.32739,0.99562
2514.27826,0.99541
2512.22913,0.99574
2510.18001,0.99628
2508.13088,0.99632
2506.08175,0.99615
2504.03263,0.99618
2501.98350,0.99645
2499.93437,0.99682
2497.88525,0.99707
2495.83612,0.99738
2493.78699,0.99793
2491.73787,0.99843
2489.68874,0.99879
2487.63961,0.99893
2485.59049,0.99902
2483.54136,0.99922
2481.49223,0.99933
2479.44311,0.99934
2477.39398,0.99964
2475.34486,0.99999
2473.29573,0.99976
2471.24660,0.99927
2469.19748,0.99911
2467.14835,0.99921
2465.09922,0.99937
2463.05010,0.99926
2461.00097,0.99879
2458.95184,0.99852
2456.90272,0.99852
2454.85359,0.99852
2452.80446,0.99881
2450.75534,0.99903
2448.70621,0.99874
2446.65708,0.99844
2444.60796,0.99853
2442.55883,0.99873
2440.50970,0.99880
2438.46058,0.99885
2436.41145,0.99896
2434.36232,0.99893
2432.31320,0.99886
2430.26407,0.99880
2428.21495,0.99867
2426.16582,0.99874
2424.11669,0.99889
2422.06757,0.99884
2420.01844,0.99858
2417.96931,0.99834
2415.92019,0.99834
2413.87106,0.99849
2411.82193,0.99844
2409.77281,0.99808
2407.72368,0.99775
2405.67455,0.99762
2403.62543,0.99776
2401.57630,0.99808
2399.52717,0.99805
2397.47805,0.99760
2395.42892,0.99731
2393.37979,0.99737
2391.33067,0.99748
2389.28154,0.99747
2387.23241,0.99726
2385.18329,0.99689
2383.13416,0.99682
2381.08503,0.99704
2379.03591,0.99704
2376.98678,0.99697
2374.93766,0.99723
2372.88853,0.99772
2370.83940,0.99800
2368.79028,0.99799
2366.74115,0.99810
2364.69202,0.99821
2362.64290,0.99789
2360.59377,0.99745
2358.54464,0.99723
2356.49552,0.99722
2354.44639,0.99715
2352.39726,0.99676
2350.34814,0.99642
2348.29901,0.99645
2346.24988,0.99676
2344.20076,0.99689
2342.15163,0.99682
2340.10250,0.99710
2338.05338,0.99733
2336.00425,0.99726
2333.95512,0.99752
2331.90600,0.99808
2329.85687,0.99819
2327.80774,0.99749
2325.75862,0.99675
2323.70949,0.99693
2321.66037,0.99760
2319.61124,0.99806
2317.56211,0.99847
2315.51299,0.99867
2313.46386,0.99825
2311.41473,0.99767
2309.36561,0.99762
2307.31648,0.99797
2305.26735,0.99810
2303.21823,0.99818
2301.16910,0.99840
2299.11997,0.99846
2297.07085,0.99864
2295.02172,0.99898
2292.97259,0.99896
2290.92347,0.99895
2288.87434,0.99943
2286.82521,0.99984
2284.77609,0.99977
2282.72696,0.99929
2280.67783,0.99835
2278.62871,0.99776
2276.57958,0.99802
2274.53045,0.99795
2272.48133,0.99684
2270.43220,0.99547
2268.38308,0.99487
2266.33395,0.99537
2264.28482,0.99615
2262.23570,0.99628
2260.18657,0.99581
2258.13744,0.99541
2256.08832,0.99553
2254.03919,0.99575
2251.99006,0.99580
2249.94094,0.99565
2247.89181,0.99511
2245.84268,0.99466
2243.79356,0.99473
2241.74443,0.99441
2239.69530,0.99332
2237.64618,0.99296
2235.59705,0.99417
2233.54792,0.99582
2231.49880,0.99675
2229.44967,0.99691
2227.40054,0.99690
2225.35142,0.99728
2223.30229,0.99792
2221.25316,0.99893
2219.20404,1.00037
2217.15491,1.00137
2215.10579,1.00174
2213.05666,1.00194
2211.00753,1.00156
2208.95841,1.00053
2206.90928,0.99974
2204.86015,0.99979
2202.81103,1.00019
2200.76190,1.00056
2198.71277,1.00120
2196.66365,1.00105
2194.61452,1.00036
2192.56539,1.00105
2190.51627,1.00173
2188.46714,1.00108
2186.41801,1.00095
2184.36889,1.00194
2182.31976,1.00223
2180.27063,1.00187
2178.22151,1.00236
2176.17238,1.00234
2174.12325,1.00039
2172.07413,0.99819
2170.02500,0.99689
2167.97587,0.99648
2165.92675,0.99744
2163.87762,0.99880
2161.82850,0.99953
2159.77937,1.00015
2157.73024,1.00106
2155.68112,1.00185
2153.63199,1.00194
2151.58286,1.00196
2149.53374,1.00218
2147.48461,1.00172
2145.43548,1.00090
2143.38636,1.00091
2141.33723,1.00171
2139.28810,1.00166
2137.23898,1.00057
2135.18985,1.00046
2133.14072,1.00109
2131.09160,1.00126
2129.04247,1.00150
2126.99334,1.00139
2124.94422,1.00062
2122.89509,1.00012
2120.84596,1.00005
2118.79684,1.00000
2116.74771,0.99976
2114.69859,0.99966
2112.64946,0.99988
2110.60033,0.99976
2108.55121,0.99918
2106.50208,0.99882
2104.45295,0.99887
2102.40383,0.99889
2100.35470,0.99879
2098.30557,0.99879
2096.25645,0.99863
2094.20732,0.99841
2092.15819,0.99851
2090.10907,0.99855
2088.05994,0.99824
2086.01081,0.99786
2083.96169,0.99785
2081.91256,0.99830
2079.86343,0.99841
2077.81431,0.99818
2075.76518,0.99847
2073.71605,0.99881
2071.66693,0.99874
2069.61780,0.99891
2067.56867,0.99875
2065.51955,0.99780
2063.47042,0.99764
2061.42130,0.99849
2059.37217,0.99903
2057.32304,0.99925
2055.27392,0.99943
2053.22479,0.99911
2051.17566,0.99878
2049.12654,0.99900
2047.07741,0.99896
2045.02828,0.99855
2042.97916,0.99846
2040.93003,0.99814
2038.88090,0.99727
2036.83178,0.99651
2034.78265,0.99620
2032.73352,0.99630
2030.68440,0.99611
2028.63527,0.99583
2026.58614,0.99631
2024.53702,0.99640
2022.48789,0.99585
2020.43876,0.99607
2018.38964,0.99645
2016.34051,0.99588
2014.29138,0.99471
2012.24226,0.99314
2010.19313,0.99155
2008.14401,0.99091
2006.09488,0.99100
2004.04575,0.99066
2001.99663,0.98966
1999.94750,0.98887
1997.89837,0.98847
1995.84925,0.98741
1993.80012,0.98594
1991.75099,0.98526
1989.70187,0.98464
1987.65274,0.98307
1985.60361,0.98092
1983.55449,0.97926
1981.50536,0.97819
1979.45623,0.97679
1977.40711,0.97506
1975.35798,0.97358
1973.30885,0.97312
1971.25973,0.97310
1969.21060,0.97192
1967.16147,0.97003
1965.11235,0.96963
1963.06322,0.97098
1961.01409,0.97192
1958.96497,0.97157
1956.91584,0.97141
1954.86672,0.97232
1952.81759,0.97386
1950.76846,0.97589
1948.71934,0.97798
1946.67021,0.97950
1944.62108,0.98063
1942.57196,0.98154
1940.52283,0.98235
1938.47370,0.98367
1936.42458,0.98573
1934.37545,0.98775
1932.32632,0.98940
1930.27720,0.99102
1928.22807,0.99256
1926.17894,0.99383
1924.12982,0.99476
1922.08069,0.99529
1920.03156,0.99570
1917.98244,0.99655
1915.93331,0.99701
1913.88418,0.99675
1911.83506,0.99693
1909.78593,0.99745
1907.73680,0.99753
1905.68768,0.99750
1903.63855,0.99771
1901.58943,0.99802
1899.54030,0.99835
1897.49117,0.99853
1895.44205,0.99837
1893.39292,0.99798
1891.34379,0.99780
1889.29467,0.99828
1887.24554,0.99917
1885.19641,0.99986
1883.14729,0.99990
1881.09816,0.99942
1879.04903,0.99919
1876.99991,0.99937
1874.95078,0.99952
1872.90165,0.99962
1870.85253,0.99985
1868.80340,1.00017
1866.75427,1.00026
1864.70515,1.00014
1862.65602,1.00011
1860.60689,0.99988
1858.55777,0.99928
1856.50864,0.99889
1854.45951,0.99879
1852.41039,0.99886
1850.36126,0.99918
1848.31214,0.99943
1846.26301,0.99934
1844.21388,0.99899
1842.16476,0.99873
1840.11563,0.99864
1838.06650,0.99848
1836.01738,0.99828
1833.96825,0.99805
1831.91912,0.99772
1829.87000,0.99718
1827.82087,0.99663
1825.77174,0.99617
1823.72262,0.99531
1821.67349,0.99410
1819.62436,0.99313
1817.57524,0.99255
1815.52611,0.99222
1813.47698,0.99198
1811.42786,0.99176
1809.37873,0.99174
1807.32960,0.99182
1805.28048,0.99173
1803.23135,0.99153
1801.18223,0.99130
1799.13310,0.99122
1797.08397,0.99137
1795.03485,0.99153
1792.98572,0.99169
1790.93659,0.99195
1788.88747,0.99220
1786.83834,0.99233
1784.78921,0.99228
1782.74009,0.99219
1780.69096,0.99221
1778.64183,0.99230
1776.59271,0.99254
1774.54358,0.99286
1772.49445,0.99299
1770.44533,0.99289
1768.39620,0.99291
1766.34707,0.99298
1764.29795,0.99297
1762.24882,0.99299
1760.19969,0.99297
1758.15057,0.99285
1756.10144,0.99268
1754.05231,0.99245
1752.00319,0.99232
1749.95406,0.99268
1747.90494,0.99361
1745.85581,0.99459
1743.80668,0.99526
1741.75756,0.99560
1739.70843,0.99561
1737.65930,0.99533
1735.61018,0.99511
1733.56105,0.99517
1731.51192,0.99529
1729.46280,0.99539
1727.41367,0.99561
1725.36454,0.99576
1723.31542,0.99575
1721.26629,0.99583
1719.21716,0.99593
1717.16804,0.99585
1715.11891,0.99589
1713.06978,0.99612
1711.02066,0.99633
1708.97153,0.99653
1706.92240,0.99659
1704.87328,0.99644
1702.82415,0.99638
1700.77502,0.99660
1698.72590,0.99699
1696.67677,0.99729
1694.62765,0.99718
1692.57852,0.99685
1690.52939,0.99681
1688.48027,0.99704
1686.43114,0.99750
1684.38201,0.99791
1682.33289,0.99729
1680.28376,0.99652
1678.23463,0.99623
1676.18551,0.99594
1674.13638,0.99518
1672.08725,0.99422
1670.03813,0.99323
1667.98900,0.99253
1665.93987,0.99244
1663.89075,0.99260
1661.84162,0.99259
1659.79249,0.99222
1657.74337,0.99167
1655.69424,0.99114
1653.64511,0.99020
1651.59599,0.98863
1649.54686,0.98761
1647.49773,0.98686
1645.44861,0.98665
1643.39948,0.98713
1641.35036,0.98777
1639.30123,0.98835
1637.25210,0.98899
1635.20298,0.98978
1633.15385,0.99016
1631.10472,0.99029
1629.05560,0.99045
1627.00647,0.99050
1624.95734,0.99051
1622.90822,0.99080
1620.85909,0.99115
1618.80996,0.99127
1616.76084,0.99131
1614.71171,0.99143
1612.66258,0.99154
1610.61346,0.99157
1608.56433,0.99168
1606.51520,0.99189
1604.46608,0.99195
1602.41695,0.99183
1600.36782,0.99175
1598.31870,0.99185
1596.26957,0.99199
1594.22044,0.99206
1592.17132,0.99203
1590.12219,0.99195
1588.07307,0.99191
1586.02394,0.99209
1583.97481,0.99239
1581.92569,0.99260
1579.87656,0.99251
1577.82743,0.99229
1575.77831,0.99235
1573.72918,0.99264
1571.68005,0.99270
1569.63093,0.99257
1567.58180,0.99245
1565.53267,0.99229
1563.48355,0.99189
1561.43442,0.99138
1559.38529,0.99119
1557.33617,0.99171
1555.28704,0.99201
1553.23791,0.99194
1551.18879,0.99182
1549.13966,0.99175
1547.09053,0.99177
1545.04141,0.99173
1542.99228,0.99150
1540.94315,0.99104
1538.89403,0.99089
1536.84490,0.99107
1534.79578,0.99108
1532.74665,0.99099
1530.69752,0.99078
1528.64840,0.99051
1526.59927,0.99024
1524.55014,0.99008
1522.50102,0.98972
1520.45189,0.98887
1518.40276,0.98808
1516.35364,0.98784
1514.30451,0.98803
1512.25538,0.98813
1510.20626,0.98787
1508.15713,0.98724
1506.10800,0.98677
1504.05888,0.98654
1502.00975,0.98602
1499.96062,0.98499
1497.91150,0.98354
1495.86237,0.98174
1493.81324,0.97969
1491.76412,0.97691
1489.71499,0.97257
1487.66587,0.96757
1485.61674,0.96273
1483.56761,0.95664
1481.51849,0.94616
1479.46936,0.92803
1477.42023,0.89881
1475.37111,0.86039
1473.32198,0.82125
1471.27285,0.78000
1469.22373,0.73583
1467.17460,0.70178
1465.12547,0.70208
1463.07635,0.73681
1461.02722,0.77177
1458.97809,0.79523
1456.92897,0.79597
1454.87984,0.78587
1452.83071,0.79350
1450.78159,0.81427
1448.73246,0.83881
1446.68333,0.86454
1444.63421,0.89013
1442.58508,0.91224
1440.53595,0.92817
1438.48683,0.93903
1436.43770,0.94819
1434.38858,0.95449
1432.33945,0.95785
1430.29032,0.96007
1428.24120,0.96157
1426.19207,0.96218
1424.14294,0.96189
1422.09382,0.96090
1420.04469,0.95922
1417.99556,0.95617
1415.94644,0.95238
1413.89731,0.94967
1411.84818,0.95008
1409.79906,0.95429
1407.74993,0.95962
1405.70080,0.96383
1403.65168,0.96666
1401.60255,0.96837
1399.55342,0.96907
1397.50430,0.96889
1395.45517,0.96843
1393.40604,0.96797
1391.35692,0.96742
1389.30779,0.96653
1387.25866,0.96507
1385.20954,0.96330
1383.16041,0.96169
1381.11129,0.95992
1379.06216,0.95705
1377.01303,0.95259
1374.96391,0.94651
1372.91478,0.94008
1370.86565,0.93532
1368.81653,0.93018
1366.76740,0.91877
1364.71827,0.89142
1362.66915,0.83534
1360.62002,0.77637
1358.57089,0.76896
1356.52177,0.81039
1354.47264,0.85215
1352.42351,0.86368
1350.37439,0.85140
1348.32526,0.82289
1346.27613,0.76511
1344.22701,0.67143
1342.17788,0.57656
1340.12875,0.52799
1338.07963,0.55394
1336.03050,0.63935
1333.98137,0.73756
1331.93225,0.81351
1329.88312,0.85997
1327.83400,0.88631
1325.78487,0.90262
1323.73574,0.91419
1321.68662,0.92302
1319.63749,0.92977
1317.58836,0.93433
1315.53924,0.93660
1313.49011,0.93706
1311.44098,0.93619
1309.39186,0.93423
1307.34273,0.93185
1305.29360,0.92959
1303.24448,0.92729
1301.19535,0.92429
1299.14622,0.92020
1297.09710,0.91420
1295.04797,0.90472
1292.99884,0.88903
1290.94972,0.86333
1288.90059,0.82516
1286.85146,0.77623
1284.80234,0.72195
1282.75321,0.66879
1280.70408,0.62870
1278.65496,0.61847
1276.60583,0.64488
1274.55671,0.69775
1272.50758,0.75958
1270.45845,0.81436
1268.40933,0.85351
1266.36020,0.87804
1264.31107,0.89250
1262.26195,0.90054
1260.21282,0.90430
1258.16369,0.90516
1256.11457,0.90384
1254.06544,0.90024
1252.01631,0.89330
1249.96719,0.88057
1247.91806,0.85682
1245.86893,0.81290
1243.81981,0.74726
1241.77068,0.68664
1239.72155,0.66622
1237.67243,0.68513
1235.62330,0.72167
1233.57417,0.76922
1231.52505,0.82453
1229.47592,0.87496
1227.42680,0.90991
1225.37767,0.92912
1223.32854,0.93879
1221.27942,0.94404
1219.23029,0.94732
1217.18116,0.94943
1215.13204,0.95066
1213.08291,0.95141
1211.03378,0.95160
1208.98466,0.95083
1206.93553,0.94894
1204.88640,0.94591
1202.83728,0.94186
1200.78815,0.93774
1198.73902,0.93489
1196.68990,0.93406
1194.64077,0.93477
1192.59164,0.93586
1190.54252,0.93637
1188.49339,0.93604
1186.44426,0.93526
1184.39514,0.93413
1182.34601,0.93231
1180.29688,0.92980
1178.24776,0.92686
1176.19863,0.92342
1174.14951,0.91912
1172.10038,0.91378
1170.05125,0.90747
1168.00213,0.89989
1165.95300,0.89063
1163.90387,0.87933
1161.85475,0.86528
1159.80562,0.84719
1157.75649,0.82228
1155.70737,0.78515
1153.65824,0.73052
1151.60911,0.66510
1149.55999,0.61209
1147.51086,0.58742
1145.46173,0.58381
1143.41261,0.59363
1141.36348,0.62120
1139.31435,0.66256
1137.26523,0.70076
1135.21610,0.72403
1133.16697,0.73185
1131.11785,0.72670
1129.06872,0.70708
1127.01959,0.66888
1124.97047,0.61330
1122.92134,0.55049
1120.87222,0.49072
1118.82309,0.43398
1116.77396,0.37472
1114.72484,0.31406
1112.67571,0.25957
1110.62658,0.21466
1108.57746,0.17768
1106.52833,0.15020
1104.47920,0.13512
1102.43008,0.13037
1100.38095,0.13182
1098.33182,0.13765
1096.28270,0.14779
1094.23357,0.16215
1092.18444,0.17985
1090.13532,0.19926
1088.08619,0.21870
1086.03706,0.23731
1083.98794,0.25530
1081.93881,0.27344
1079.88968,0.29208
1077.84056,0.31043
1075.79143,0.32714
1073.74230,0.34122
1071.69318,0.35144
1069.64405,0.35588
1067.59493,0.35063
1065.54580,0.32829
1063.49667,0.28482
1061.44755,0.23523
1059.39842,0.21078
1057.34929,0.22863
1055.30017,0.27734
1053.25104,0.33506
1051.20191,0.38762
1049.15279,0.43071
1047.10366,0.46524
1045.05453,0.49339
1043.00541,0.51706
1040.95628,0.53780
1038.90715,0.55676
1036.85803,0.57440
1034.80890,0.59052
1032.75977,0.60457
1030.71065,0.61650
1028.66152,0.62775
1026.61239,0.64046
1024.56327,0.65537
1022.51414,0.67128
1020.46501,0.68651
1018.41589,0.70047
1016.36676,0.71365
1014.31764,0.72649
1012.26851,0.73858
1010.21938,0.74921
1008.17026,0.75790
1006.12113,0.76455
1004.07200,0.76964
1002.02288,0.77412
999.97375,0.77908
997.92462,0.78510
995.87550,0.79192
993.82637,0.79879
991.77724,0.80500
989.72812,0.81037
987.67899,0.81532
985.62986,0.82001
983.58074,0.82405
981.53161,0.82659
979.48248,0.82624
977.43336,0.82175
975.38423,0.81180
973.33510,0.79398
971.28598,0.76450
969.23685,0.71806
967.18772,0.65199
965.13860,0.57569
963.08947,0.50801
961.04035,0.45930
958.99122,0.42623
956.94209,0.40438
954.89297,0.39261
952.84384,0.38606
950.79471,0.37682
948.74559,0.36370
946.69646,0.35563
944.64733,0.36309
942.59821,0.38839
940.54908,0.42505
938.49995,0.46337
936.45083,0.49473
934.40170,0.51649
932.35257,0.53532
930.30345,0.55738
928.25432,0.58038
926.20519,0.60293
924.15607,0.62760
922.10694,0.65362
920.05781,0.67809
918.00869,0.70007
915.95956,0.71978
913.91044,0.73750
911.86131,0.75390
909.81218,0.76948
907.76306,0.78401
905.71393,0.79718
903.66480,0.80883
901.61568,0.81883
899.56655,0.82718
897.51742,0.83372
895.46830,0.83849
893.41917,0.84183
891.37004,0.84413
889.32092,0.84584
887.27179,0.84714
885.22266,0.84827
883.17354,0.84982
881.12441,0.85174
879.07528,0.85351
877.02616,0.85484
874.97703,0.85524
872.92790,0.85456
870.87878,0.85338
868.82965,0.85190
866.78052,0.84923
864.73140,0.84356
862.68227,0.83339
860.63315,0.81812
858.58402,0.79868
856.53489,0.77836
854.48577,0.75900
852.43664,0.73399
850.38751,0.68962
848.33839,0.61780
846.28926,0.52580
844.24013,0.43452
842.19101,0.37727
840.14188,0.38687
838.09275,0.46148
836.04363,0.56058
833.99450,0.64484
831.94537,0.70264
829.89625,0.74102
827.84712,0.77007
825.79799,0.79805
823.74887,0.82674
821.69974,0.85141
819.65061,0.86921
817.60149,0.88121
815.55236,0.88914
813.50323,0.89425
811.45411,0.89805
809.40498,0.90274
807.35586,0.90947
805.30673,0.91677
803.25760,0.92225
801.20848,0.92628
799.15935,0.93036
797.11022,0.93389
795.06110,0.93641
793.01197,0.93883
790.96284,0.94132
788.91372,0.94344
786.86459,0.94525
784.81546,0.94704
782.76634,0.94888
780.71721,0.95042
778.66808,0.95157
776.61896,0.95265
774.56983,0.95360
772.52070,0.95407
770.47158,0.95442
768.42245,0.95481
766.37332,0.95491
764.32420,0.95523
762.27507,0.95579
760.22594,0.95581
758.17682,0.95545
756.12769,0.95509
754.07857,0.95489
752.02944,0.95502
749.98031,0.95474
747.93119,0.95331
745.88206,0.95164
743.83293,0.95091
741.78381,0.95079
739.73468,0.95091
737.68555,0.95137
735.63643,0.95198
733.58730,0.95276
731.53817,0.95376
729.48905,0.95447
727.43992,0.95493
725.39079,0.95582
723.34167,0.95729
721.29254,0.95861
719.24341,0.95881
717.19429,0.95824
715.14516,0.95791
713.09603,0.95817
711.04691,0.95881
708.99778,0.95929
706.94865,0.95947
704.89953,0.95927
702.85040,0.95860
700.80128,0.95793
698.75215,0.95745
696.70302,0.95691
694.65390,0.95663
692.60477,0.95629
690.55564,0.95549
688.50652,0.95528
686.45739,0.95556
684.40826,0.95502
682.35914,0.95407
680.31001,0.95389
678.26088,0.95442
676.21176,0.95455
674.16263,0.95370
672.11350,0.95282
670.06438,0.95281
668.01525,0.95303
665.96612,0.95266
663.91700,0.95265
661.86787,0.95299
659.81874,0.95261
657.76962,0.95138
655.72049,0.95000
653.67136,0.94915
651.62224,0.94894
649.57311,0.94871
647.52399,0.94797
645.47486,0.94699
643.42573,0.94614
641.37661,0.94515
639.32748,0.94426
637.27835,0.94389
635.22923,0.94353
633.18010,0.94319
631.13097,0.94349
629.08185,0.94378
627.03272,0.94319
624.98359,0.94255
622.93447,0.94262
620.88534,0.94255
618.83621,0.94180
616.78709,0.94110
614.73796,0.94053
612.68883,0.93969
610.63971,0.93891
608.59058,0.93781
606.54145,0.93611
604.49233,0.93481
602.44320,0.93426
600.39408,0.93389
598.34495,0.93354
596.29582,0.93243
594.24670,0.92981
592.19757,0.92716
590.14844,0.92583
588.09932,0.92518
586.05019,0.92447
584.00106,0.92345
581.95194,0.92209
579.90281,0.92028
577.85368,0.91896
575.80456,0.91992
573.75543,0.92166
571.70630,0.92112
569.65718,0.91874
567.60805,0.91667
565.55892,0.91549
563.50980,0.91445
561.46067,0.91347
559.41154,0.91310
557.36242,0.91301
555.31329,0.91286
553.26416,0.91238
551.21504,0.91115
549.16591,0.90963
547.11679,0.90764
545.06766,0.90368
543.01853,0.89662
540.96941,0.88650
538.92028,0.87265
536.87115,0.85322
534.82203,0.82527
532.77290,0.78668
530.72377,0.74613
528.67465,0.72424
526.62552,0.73432
524.57639,0.76703
522.52727,0.80057
520.47814,0.82443
518.42901,0.83786
516.37989,0.84181
514.33076,0.83534
512.28163,0.81896
510.23251,0.80181
508.18338,0.79889
506.13425,0.81491
504.08513,0.83951
502.03600,0.86197
499.98687,0.87691
497.93775,0.88600
495.88862,0.89324
493.83950,0.89826
491.79037,0.90011
489.74124,0.90075
487.69212,0.90284
485.64299,0.90685
483.59386,0.91080
481.54474,0.91311
479.49561,0.91438
477.44648,0.91598
475.39736,0.91809
473.34823,0.91927
471.29910,0.91913
469.24998,0.91928
467.20085,0.92036
465.15172,0.92119
463.10260,0.92179
461.05347,0.92400
459.00434,0.92660
456.95522,0.92647
454.90609,0.92537
452.85696,0.92386
450.80784,0.92188
448.75871,0.92154
446.70958,0.92113
444.66046,0.92012
442.61133,0.91980
440.56221,0.92037
438.51308,0.92197
436.46395,0.92283
434.41483,0.92204
432.36570,0.92201
430.31657,0.92468
428.26745,0.92573
426.21832,0.92365
424.16919,0.92403
422.12007,0.92578
420.07094,0.92612
418.02181,0.92857
415.97269,0.93121
413.92356,0.93294
411.87443,0.93458
409.82531,0.93435
407.77618,0.93363
405.72705,0.93327
403.67793,0.93159
401.62880,0.92797
399.57967,0.92278
