3997.84587,0.98345
3995.79675,0.98319
3993.74762,0.98299
3991.69849,0.98281
3989.64937,0.98281
3987.60024,0.98318
3985.55111,0.98368
3983.50199,0.98384
3981.45286,0.98365
3979.40373,0.98337
3977.35461,0.98300
3975.30548,0.98270
3973.25635,0.98282
3971.20723,0.98329
3969.15810,0.98376
3967.10897,0.98390
3965.05985,0.98352
3963.01072,0.98293
3960.96159,0.98279
3958.91247,0.98319
3956.86334,0.98337
3954.81421,0.98333
3952.76509,0.98361
3950.71596,0.98389
3948.66683,0.98384
3946.61771,0.98372
3944.56858,0.98366
3942.51946,0.98366
3940.47033,0.98357
3938.42120,0.98340
3936.37208,0.98354
3934.32295,0.98389
3932.27382,0.98391
3930.22470,0.98380
3928.17557,0.98402
3926.12644,0.98421
3924.07732,0.98399
3922.02819,0.98353
3919.97906,0.98318
3917.92994,0.98318
3915.88081,0.98346
3913.83168,0.98372
3911.78256,0.98394
3909.73343,0.98409
3907.68430,0.98408
3905.63518,0.98403
3903.58605,0.98404
3901.53692,0.98389
3899.48780,0.98374
3897.43867,0.98376
3895.38954,0.98363
3893.34042,0.98329
3891.29129,0.98306
3889.24217,0.98306
3887.19304,0.98315
3885.14391,0.98337
3883.09479,0.98360
3881.04566,0.98361
3878.99653,0.98335
3876.94741,0.98314
3874.89828,0.98313
3872.84915,0.98320
3870.80003,0.98346
3868.75090,0.98399
3866.70177,0.98443
3864.65265,0.98466
3862.60352,0.98446
3860.55439,0.98409
3858.50527,0.98399
3856.45614,0.98402
3854.40701,0.98417
3852.35789,0.98437
3850.30876,0.98420
3848.25963,0.98410
3846.21051,0.98416
3844.16138,0.98399
3842.11225,0.98361
3840.06313,0.98360
3838.01400,0.98403
3835.96488,0.98421
3833.91575,0.98429
3831.86662,0.98446
3829.81750,0.98423
3827.76837,0.98380
3825.71924,0.98389
3823.67012,0.98426
3821.62099,0.98441
3819.57186,0.98458
3817.52274,0.98477
3815.47361,0.98449
3813.42448,0.98415
3811.37536,0.98424
3809.32623,0.98445
3807.27710,0.98436
3805.22798,0.98401
3803.17885,0.98390
3801.12972,0.98398
3799.08060,0.98411
3797.03147,0.98445
3794.98234,0.98467
3792.93322,0.98430
3790.88409,0.98385
3788.83496,0.98387
3786.78584,0.98401
3784.73671,0.98382
3782.68759,0.98364
3780.63846,0.98379
3778.58933,0.98423
3776.54021,0.98465
3774.49108,0.98473
3772.44195,0.98461
3770.39283,0.98440
3768.34370,0.98412
3766.29457,0.98411
3764.24545,0.98442
3762.19632,0.98458
3760.14719,0.98453
3758.09807,0.98454
3756.04894,0.98470
3753.99981,0.98484
3751.95069,0.98457
3749.90156,0.98412
3747.85243,0.98393
3745.80331,0.98341
3743.75418,0.98282
3741.70505,0.98295
3739.65593,0.98332
3737.60680,0.98367
3735.55767,0.98422
3733.50855,0.98455
3731.45942,0.98410
3729.41030,0.98371
3727.36117,0.98385
3725.31204,0.98415
3723.26292,0.98415
3721.21379,0.98401
3719.16466,0.98415
3717.11554,0.98440
3715.06641,0.98453
3713.01728,0.98448
3710.96816,0.98429
3708.91903,0.98432
3706.86990,0.98450
3704.82078,0.98451
3702.77165,0.98426
3700.72252,0.98415
3698.67340,0.98440
3696.62427,0.98466
3694.57514,0.98488
3692.52602,0.98496
3690.47689,0.98457
3688.42776,0.98392
3686.37864,0.98370
3684.32951,0.98385
3682.28039,0.98394
3680.23126,0.98379
3678.18213,0.98360
3676.13301,0.98371
3674.08388,0.98405
3672.03475,0.98410
3669.98563,0.98389
3667.93650,0.98382
3665.88737,0.98382
3663.83825,0.98384
3661.78912,0.98403
3659.73999,0.98426
3657.69087,0.98411
3655.64174,0.98355
3653.59261,0.98323
3651.54349,0.98336
3649.49436,0.98356
3647.44523,0.98329
3645.39611,0.98307
3643.34698,0.98337
3641.29785,0.98373
3639.24873,0.98364
3637.19960,0.98333
3635.15047,0.98324
3633.10135,0.98335
3631.05222,0.98354
3629.00310,0.98357
3626.95397,0.98322
3624.90484,0.98307
3622.85572,0.98311
3620.80659,0.98299
3618.75746,0.98243
3616.70834,0.98182
3614.65921,0.98185
3612.61008,0.98199
3610.56096,0.98165
3608.51183,0.98146
3606.46270,0.98168
3604.41358,0.98169
3602.36445,0.98136
3600.31532,0.98117
3598.26620,0.98155
3596.21707,0.98189
3594.16794,0.98150
3592.11882,0.98107
3590.06969,0.98105
3588.02056,0.98083
3585.97144,0.98042
3583.92231,0.98044
3581.87318,0.98065
3579.82406,0.98077
3577.77493,0.98087
3575.72581,0.98078
3573.67668,0.98032
3571.62755,0.97997
3569.57843,0.97992
3567.52930,0.97982
3565.48017,0.97977
3563.43105,0.97981
3561.38192,0.97960
3559.33279,0.97925
3557.28367,0.97913
3555.23454,0.97945
3553.18541,0.97981
3551.13629,0.97966
3549.08716,0.97927
3547.03803,0.97905
3544.98891,0.97900
3542.93978,0.97899
3540.89065,0.97891
3538.84153,0.97872
3536.79240,0.97848
3534.74327,0.97837
3532.69415,0.97845
3530.64502,0.97846
3528.59589,0.97833
3526.54677,0.97814
3524.49764,0.97794
3522.44852,0.97769
3520.39939,0.97749
3518.35026,0.97747
3516.30114,0.97733
3514.25201,0.97705
3512.20288,0.97695
3510.15376,0.97709
3508.10463,0.97716
3506.05550,0.97694
3504.00638,0.97658
3501.95725,0.97636
3499.90812,0.97647
3497.85900,0.97659
3495.80987,0.97647
3493.76074,0.97630
3491.71162,0.97610
3489.66249,0.97557
3487.61336,0.97505
3485.56424,0.97514
3483.51511,0.97543
3481.46598,0.97530
3479.41686,0.97498
3477.36773,0.97484
3475.31860,0.97497
3473.26948,0.97504
3471.22035,0.97483
3469.17123,0.97461
3467.12210,0.97455
3465.07297,0.97463
3463.02385,0.97482
3460.97472,0.97493
3458.92559,0.97501
3456.87647,0.97498
3454.82734,0.97467
3452.77821,0.97439
3450.72909,0.97462
3448.67996,0.97502
3446.63083,0.97488
3444.58171,0.97443
3442.53258,0.97421
3440.48345,0.97422
3438.43433,0.97416
3436.38520,0.97412
3434.33607,0.97419
3432.28695,0.97411
3430.23782,0.97398
3428.18869,0.97394
3426.13957,0.97384
3424.09044,0.97378
3422.04131,0.97375
3419.99219,0.97360
3417.94306,0.97356
3415.89394,0.97360
3413.84481,0.97354
3411.79568,0.97364
3409.74656,0.97397
3407.69743,0.97422
3405.64830,0.97424
3403.59918,0.97401
3401.55005,0.97369
3399.50092,0.97359
3397.45180,0.97361
3395.40267,0.97348
3393.35354,0.97349
3391.30442,0.97380
3389.25529,0.97401
3387.20616,0.97389
3385.15704,0.97340
3383.10791,0.97286
3381.05878,0.97284
3379.00966,0.97336
3376.96053,0.97396
3374.91140,0.97432
3372.86228,0.97442
3370.81315,0.97436
3368.76403,0.97417
3366.71490,0.97389
3364.66577,0.97382
3362.61665,0.97408
3360.56752,0.97441
3358.51839,0.97457
3356.46927,0.97462
3354.42014,0.97470
3352.37101,0.97479
3350.32189,0.97475
3348.27276,0.97463
3346.22363,0.97456
3344.17451,0.97441
3342.12538,0.97441
3340.07625,0.97473
3338.02713,0.97501
3335.97800,0.97521
3333.92887,0.97549
3331.87975,0.97554
3329.83062,0.97524
3327.78149,0.97485
3325.73237,0.97463
3323.68324,0.97485
3321.63411,0.97533
3319.58499,0.97554
3317.53586,0.97549
3315.48674,0.97535
3313.43761,0.97506
3311.38848,0.97494
3309.33936,0.97534
3307.29023,0.97579
3305.24110,0.97591
3303.19198,0.97618
3301.14285,0.97652
3299.09372,0.97623
3297.04460,0.97568
3294.99547,0.97565
3292.94634,0.97602
3290.89722,0.97633
3288.84809,0.97642
3286.79896,0.97642
3284.74984,0.97633
3282.70071,0.97618
3280.65158,0.97618
3278.60246,0.97642
3276.55333,0.97678
3274.50420,0.97698
3272.45508,0.97697
3270.40595,0.97685
3268.35682,0.97659
3266.30770,0.97633
3264.25857,0.97649
3262.20945,0.97706
3260.16032,0.97747
3258.11119,0.97734
3256.06207,0.97705
3254.01294,0.97720
3251.96381,0.97765
3249.91469,0.97786
3247.86556,0.97775
3245.81643,0.97762
3243.76731,0.97768
3241.71818,0.97777
3239.66905,0.97787
3237.61993,0.97808
3235.57080,0.97806
3233.52167,0.97793
3231.47255,0.97800
3229.42342,0.97795
3227.37429,0.97791
3225.32517,0.97819
3223.27604,0.97838
3221.22691,0.97849
3219.17779,0.97876
3217.12866,0.97889
3215.07953,0.97873
3213.03041,0.97844
3210.98128,0.97824
3208.93216,0.97842
3206.88303,0.97885
3204.83390,0.97924
3202.78478,0.97931
3200.73565,0.97923
3198.68652,0.97933
3196.63740,0.97924
3194.58827,0.97897
3192.53914,0.97896
3190.49002,0.97902
3188.44089,0.97906
3186.39176,0.97920
3184.34264,0.97930
3182.29351,0.97939
3180.24438,0.97941
3178.19526,0.97929
3176.14613,0.97923
3174.09700,0.97917
3172.04788,0.97891
3169.99875,0.97882
3167.94962,0.97925
3165.90050,0.97984
3163.85137,0.98013
3161.80224,0.97996
3159.75312,0.97963
3157.70399,0.97961
3155.65487,0.97987
3153.60574,0.98000
3151.55661,0.98019
3149.50749,0.98046
3147.45836,0.98039
3145.40923,0.98010
3143.36011,0.97987
3141.31098,0.97978
3139.26185,0.97996
3137.21273,0.98030
3135.16360,0.98049
3133.11447,0.98047
3131.06535,0.98033
3129.01622,0.98022
3126.96709,0.98030
3124.91797,0.98048
3122.86884,0.98049
3120.81971,0.98030
3118.77059,0.98027
3116.72146,0.98067
3114.67233,0.98110
3112.62321,0.98116
3110.57408,0.98109
3108.52495,0.98109
3106.47583,0.98113
3104.42670,0.98122
3102.37758,0.98121
3100.32845,0.98103
3098.27932,0.98104
3096.23020,0.98118
3094.18107,0.98108
3092.13194,0.98085
3090.08282,0.98057
3088.03369,0.98016
3085.98456,0.97998
3083.93544,0.98023
3081.88631,0.98044
3079.83718,0.98034
3077.78806,0.98025
3075.73893,0.98021
3073.68980,0.98008
3071.64068,0.98006
3069.59155,0.98013
3067.54242,0.98018
3065.49330,0.98014
3063.44417,0.97999
3061.39504,0.97989
3059.34592,0.97992
3057.29679,0.97984
3055.24767,0.97962
3053.19854,0.97952
3051.14941,0.97952
3049.10029,0.97960
3047.05116,0.97970
3045.00203,0.97956
3042.95291,0.97926
3040.90378,0.97902
3038.85465,0.97895
3036.80553,0.97909
3034.75640,0.97915
3032.70727,0.97895
3030.65815,0.97865
3028.60902,0.97827
3026.55989,0.97799
3024.51077,0.97795
3022.46164,0.97808
3020.41251,0.97810
3018.36339,0.97795
3016.31426,0.97776
3014.26513,0.97744
3012.21601,0.97704
3010.16688,0.97684
3008.11775,0.97674
3006.06863,0.97657
3004.01950,0.97623
3001.97038,0.97559
2999.92125,0.97496
2997.87212,0.97438
2995.82300,0.97353
2993.77387,0.97258
2991.72474,0.97176
2989.67562,0.97080
2987.62649,0.96953
2985.57736,0.96792
2983.52824,0.96581
2981.47911,0.96315
2979.42998,0.96006
2977.38086,0.95646
2975.33173,0.95211
2973.28260,0.94668
2971.23348,0.93977
2969.18435,0.93115
2967.13522,0.92084
2965.08610,0.90941
2963.03697,0.89783
2960.98784,0.88682
2958.93872,0.87693
2956.88959,0.86939
2954.84046,0.86562
2952.79134,0.86568
2950.74221,0.86778
2948.69309,0.86909
2946.64396,0.86740
2944.59483,0.86187
2942.54571,0.85230
2940.49658,0.83902
2938.44745,0.82256
2936.39833,0.80320
2934.34920,0.78129
2932.30007,0.75754
2930.25095,0.73283
2928.20182,0.70764
2926.15269,0.68272
2924.10357,0.66012
2922.05444,0.64279
2920.00531,0.63387
2917.95619,0.63527
2915.90706,0.64683
2913.85793,0.66660
2911.80881,0.69080
2909.75968,0.71502
2907.71055,0.73625
2905.66143,0.75369
2903.61230,0.76789
2901.56317,0.77983
2899.51405,0.79048
2897.46492,0.80047
2895.41580,0.80983
2893.36667,0.81854
2891.31754,0.82677
2889.26842,0.83429
2887.21929,0.84063
2885.17016,0.84548
2883.12104,0.84847
2881.07191,0.84916
2879.02278,0.84737
2876.97366,0.84309
2874.92453,0.83700
2872.87540,0.83133
2870.82628,0.82788
2868.77715,0.82584
2866.72802,0.82268
2864.67890,0.81580
2862.62977,0.80368
2860.58064,0.78652
2858.53152,0.76549
2856.48239,0.74204
2854.43326,0.71859
2852.38414,0.70001
2850.33501,0.69394
2848.28588,0.70661
2846.23676,0.73670
2844.18763,0.77522
2842.13851,0.81255
2840.08938,0.84371
2838.04025,0.86785
2835.99113,0.88601
2833.94200,0.89963
2831.89287,0.90982
2829.84375,0.91746
2827.79462,0.92341
2825.74549,0.92816
2823.69637,0.93205
2821.64724,0.93532
2819.59811,0.93805
2817.54899,0.94027
2815.49986,0.94202
2813.45073,0.94348
2811.40161,0.94486
2809.35248,0.94604
2807.30335,0.94701
2805.25423,0.94785
2803.20510,0.94861
2801.15597,0.94951
2799.10685,0.95054
2797.05772,0.95156
2795.00859,0.95280
2792.95947,0.95428
2790.91034,0.95563
2788.86122,0.95679
2786.81209,0.95800
2784.76296,0.95931
2782.71384,0.96053
2780.66471,0.96151
2778.61558,0.96228
2776.56646,0.96294
2774.51733,0.96348
2772.46820,0.96390
2770.41908,0.96417
2768.36995,0.96446
2766.32082,0.96496
2764.27170,0.96553
2762.22257,0.96582
2760.17344,0.96584
2758.12432,0.96597
2756.07519,0.96624
2754.02606,0.96640
2751.97694,0.96652
2749.92781,0.96674
2747.87868,0.96691
2745.82956,0.96695
2743.78043,0.96700
2741.73131,0.96710
2739.68218,0.96727
2737.63305,0.96735
2735.58393,0.96719
2733.53480,0.96714
2731.48567,0.96739
2729.43655,0.96766
2727.38742,0.96790
2725.33829,0.96834
2723.28917,0.96886
2721.24004,0.96920
2719.19091,0.96942
2717.14179,0.96969
2715.09266,0.96993
2713.04353,0.97014
2710.99441,0.97052
2708.94528,0.97085
2706.89615,0.97097
2704.84703,0.97119
2702.79790,0.97151
2700.74877,0.97172
2698.69965,0.97185
2696.65052,0.97193
2694.60139,0.97190
2692.55227,0.97181
2690.50314,0.97184
2688.45402,0.97194
2686.40489,0.97205
2684.35576,0.97210
2682.30664,0.97199
2680.25751,0.97190
2678.20838,0.97200
2676.15926,0.97225
2674.11013,0.97249
2672.06100,0.97255
2670.01188,0.97259
2667.96275,0.97283
2665.91362,0.97308
2663.86450,0.97317
2661.81537,0.97327
2659.76624,0.97344
2657.71712,0.97370
2655.66799,0.97395
2653.61886,0.97405
2651.56974,0.97417
2649.52061,0.97428
2647.47148,0.97435
2645.42236,0.97457
2643.37323,0.97477
2641.32410,0.97478
2639.27498,0.97486
2637.22585,0.97515
2635.17673,0.97531
2633.12760,0.97532
2631.07847,0.97537
2629.02935,0.97533
2626.98022,0.97526
2624.93109,0.97543
2622.88197,0.97576
2620.83284,0.97601
2618.78371,0.97601
2616.73459,0.97587
2614.68546,0.97603
2612.63633,0.97666
2610.58721,0.97710
2608.53808,0.97703
2606.48895,0.97701
2604.43983,0.97735
2602.39070,0.97762
2600.34157,0.97750
2598.29245,0.97730
2596.24332,0.97731
2594.19419,0.97724
2592.14507,0.97712
2590.09594,0.97724
2588.04681,0.97742
2585.99769,0.97751
2583.94856,0.97763
2581.89944,0.97776
2579.85031,0.97779
2577.80118,0.97776
2575.75206,0.97785
2573.70293,0.97808
2571.65380,0.97818
2569.60468,0.97815
2567.55555,0.97828
2565.50642,0.97853
2563.45730,0.97890
2561.40817,0.97912
2559.35904,0.97884
2557.30992,0.97859
2555.26079,0.97882
2553.21166,0.97914
2551.16254,0.97938
2549.11341,0.97963
2547.06428,0.97963
2545.01516,0.97924
2542.96603,0.97900
2540.91690,0.97918
2538.86778,0.97938
2536.81865,0.97947
2534.76952,0.97956
2532.72040,0.97963
2530.67127,0.97950
2528.62215,0.97918
2526.57302,0.97908
2524.52389,0.97924
2522.47477,0.97935
2520.42564,0.97950
2518.37651,0.97971
2516.32739,0.97983
2514.27826,0.97988
2512.22913,0.97996
2510.18001,0.97996
2508.13088,0.97993
2506.08175,0.97989
2504.03263,0.97972
2501.98350,0.97961
2499.93437,0.97979
2497.88525,0.98006
2495.83612,0.98012
2493.78699,0.97993
2491.73787,0.97966
2489.68874,0.97964
2487.63961,0.97988
2485.59049,0.98024
2483.54136,0.98036
2481.49223,0.98025
2479.44311,0.98030
2477.39398,0.98020
2475.34486,0.97992
2473.29573,0.98014
2471.24660,0.98070
2469.19748,0.98085
2467.14835,0.98045
2465.09922,0.97987
2463.05010,0.97961
2461.00097,0.97993
2458.95184,0.98029
2456.90272,0.98023
2454.85359,0.98013
2452.80446,0.98011
2450.75534,0.97996
2448.70621,0.97993
2446.65708,0.97998
2444.60796,0.97967
2442.55883,0.97941
2440.50970,0.97955
2438.46058,0.97975
2436.41145,0.97993
2434.36232,0.98011
2432.31320,0.98030
2430.26407,0.98051
2428.21495,0.98055
2426.16582,0.98042
2424.11669,0.98026
2422.06757,0.98020
2420.01844,0.98014
2417.96931,0.97997
2415.92019,0.97999
2413.87106,0.98019
2411.82193,0.98012
2409.77281,0.97982
2407.72368,0.97994
2405.67455,0.98049
2403.62543,0.98065
2401.57630,0.98011
2399.52717,0.97956
2397.47805,0.97952
2395.42892,0.97984
2393.37979,0.98004
2391.33067,0.97993
2389.28154,0.97985
2387.23241,0.97990
2385.18329,0.97993
2383.13416,0.98010
2381.08503,0.98033
2379.03591,0.98021
2376.98678,0.97985
2374.93766,0.97975
2372.88853,0.97993
2370.83940,0.98007
2368.79028,0.98010
2366.74115,0.97985
2364.69202,0.97947
2362.64290,0.97974
2360.59377,0.98069
2358.54464,0.98116
2356.49552,0.98068
2354.44639,0.98007
2352.39726,0.97984
2350.34814,0.97981
2348.29901,0.97969
2346.24988,0.97937
2344.20076,0.97919
2342.15163,0.97936
2340.10250,0.97951
2338.05338,0.97971
2336.00425,0.97991
2333.95512,0.97965
2331.90600,0.97932
2329.85687,0.97934
2327.80774,0.97958
2325.75862,0.97996
2323.70949,0.98015
2321.66037,0.98002
2319.61124,0.98026
2317.56211,0.98081
2315.51299,0.98085
2313.46386,0.98023
2311.41473,0.97958
2309.36561,0.97951
2307.31648,0.97992
2305.26735,0.98024
2303.21823,0.98030
2301.16910,0.98037
2299.11997,0.98039
2297.07085,0.98030
2295.02172,0.98055
2292.97259,0.98114
2290.92347,0.98150
2288.87434,0.98143
2286.82521,0.98116
2284.77609,0.98080
2282.72696,0.98052
2280.67783,0.98056
2278.62871,0.98102
2276.57958,0.98187
2274.53045,0.98215
2272.48133,0.98144
2270.43220,0.98093
2268.38308,0.98153
2266.33395,0.98271
2264.28482,0.98356
2262.23570,0.98376
2260.18657,0.98318
2258.13744,0.98239
2256.08832,0.98251
2254.03919,0.98324
2251.99006,0.98379
2249.94094,0.98410
2247.89181,0.98390
2245.84268,0.98358
2243.79356,0.98349
2241.74443,0.98326
2239.69530,0.98327
2237.64618,0.98363
2235.59705,0.98385
2233.54792,0.98413
2231.49880,0.98452
2229.44967,0.98493
2227.40054,0.98526
2225.35142,0.98491
2223.30229,0.98415
2221.25316,0.98375
2219.20404,0.98347
2217.15491,0.98302
2215.10579,0.98337
2213.05666,0.98496
2211.00753,0.98619
2208.95841,0.98624
2206.90928,0.98562
2204.86015,0.98464
2202.81103,0.98428
2200.76190,0.98506
2198.71277,0.98559
2196.66365,0.98492
2194.61452,0.98396
2192.56539,0.98343
2190.51627,0.98349
2188.46714,0.98441
2186.41801,0.98535
2184.36889,0.98500
2182.31976,0.98410
2180.27063,0.98419
2178.22151,0.98474
2176.17238,0.98483
2174.12325,0.98483
2172.07413,0.98501
2170.02500,0.98496
2167.97587,0.98472
2165.92675,0.98523
2163.87762,0.98579
2161.82850,0.98564
2159.77937,0.98612
2157.73024,0.98658
2155.68112,0.98574
2153.63199,0.98432
2151.58286,0.98299
2149.53374,0.98231
2147.48461,0.98235
2145.43548,0.98241
2143.38636,0.98228
2141.33723,0.98211
2139.28810,0.98212
2137.23898,0.98237
2135.18985,0.98219
2133.14072,0.98159
2131.09160,0.98140
2129.04247,0.98175
2126.99334,0.98233
2124.94422,0.98259
2122.89509,0.98215
2120.84596,0.98160
2118.79684,0.98162
2116.74771,0.98167
2114.69859,0.98127
2112.64946,0.98088
2110.60033,0.98046
2108.55121,0.97995
2106.50208,0.98021
2104.45295,0.98104
2102.40383,0.98106
2100.35470,0.98061
2098.30557,0.98085
2096.25645,0.98113
2094.20732,0.98089
2092.15819,0.98066
2090.10907,0.98068
2088.05994,0.98097
2086.01081,0.98136
2083.96169,0.98108
2081.91256,0.97986
2079.86343,0.97901
2077.81431,0.97957
2075.76518,0.98068
2073.71605,0.98134
2071.66693,0.98214
2069.61780,0.98263
2067.56867,0.98172
2065.51955,0.98067
2063.47042,0.98057
2061.42130,0.98075
2059.37217,0.98099
2057.32304,0.98119
2055.27392,0.98109
2053.22479,0.98086
2051.17566,0.98059
2049.12654,0.98040
2047.07741,0.98055
2045.02828,0.98125
2042.97916,0.98175
2040.93003,0.98170
2038.88090,0.98194
2036.83178,0.98227
2034.78265,0.98209
2032.73352,0.98128
2030.68440,0.98044
2028.63527,0.98044
2026.58614,0.98209
2024.53702,0.98446
2022.48789,0.98505
2020.43876,0.98400
2018.38964,0.98317
2016.34051,0.98268
2014.29138,0.98195
2012.24226,0.98210
2010.19313,0.98324
2008.14401,0.98298
2006.09488,0.98191
2004.04575,0.98238
2001.99663,0.98278
1999.94750,0.98178
1997.89837,0.98136
1995.84925,0.98206
1993.80012,0.98201
1991.75099,0.98162
1989.70187,0.98289
1987.65274,0.98414
1985.60361,0.98346
1983.55449,0.98253
1981.50536,0.98241
1979.45623,0.98256
1977.40711,0.98290
1975.35798,0.98298
1973.30885,0.98250
1971.25973,0.98175
1969.21060,0.98100
1967.16147,0.98017
1965.11235,0.97954
1963.06322,0.97950
1961.01409,0.97977
1958.96497,0.98028
1956.91584,0.98098
1954.86672,0.98177
1952.81759,0.98250
1950.76846,0.98247
1948.71934,0.98193
1946.67021,0.98174
1944.62108,0.98179
1942.57196,0.98207
1940.52283,0.98238
1938.47370,0.98178
1936.42458,0.98077
1934.37545,0.98056
1932.32632,0.98072
1930.27720,0.98038
1928.22807,0.97987
1926.17894,0.97954
1924.12982,0.97963
1922.08069,0.98039
1920.03156,0.98110
1917.98244,0.98106
1915.93331,0.98067
1913.88418,0.98063
1911.83506,0.98072
1909.78593,0.98050
1907.73680,0.98033
1905.68768,0.98051
1903.63855,0.98076
1901.58943,0.98095
1899.54030,0.98087
1897.49117,0.98049
1895.44205,0.98031
1893.39292,0.98055
1891.34379,0.98086
1889.29467,0.98081
1887.24554,0.98053
1885.19641,0.98049
1883.14729,0.98046
1881.09816,0.98019
1879.04903,0.97982
1876.99991,0.97955
1874.95078,0.97966
1872.90165,0.97990
1870.85253,0.98008
1868.80340,0.98066
1866.75427,0.98118
1864.70515,0.98085
1862.65602,0.98028
1860.60689,0.98008
1858.55777,0.98016
1856.50864,0.98019
1854.45951,0.98020
1852.41039,0.98047
1850.36126,0.98065
1848.31214,0.98046
1846.26301,0.98058
1844.21388,0.98103
1842.16476,0.98073
1840.11563,0.98012
1838.06650,0.97998
1836.01738,0.98013
1833.96825,0.98035
1831.91912,0.98057
1829.87000,0.98054
1827.82087,0.98036
1825.77174,0.98033
1823.72262,0.98042
1821.67349,0.98059
1819.62436,0.98062
1817.57524,0.98041
1815.52611,0.98015
1813.47698,0.97995
1811.42786,0.97973
1809.37873,0.97966
1807.32960,0.97989
1805.28048,0.98012
1803.23135,0.97995
1801.18223,0.97955
1799.13310,0.97942
1797.08397,0.97954
1795.03485,0.97959
1792.98572,0.97965
1790.93659,0.97977
1788.88747,0.97980
1786.83834,0.97973
1784.78921,0.97958
1782.74009,0.97929
1780.69096,0.97890
1778.64183,0.97867
1776.59271,0.97867
1774.54358,0.97884
1772.49445,0.97889
1770.44533,0.97854
1768.39620,0.97819
1766.34707,0.97809
1764.29795,0.97817
1762.24882,0.97807
1760.19969,0.97768
1758.15057,0.97741
1756.10144,0.97719
1754.05231,0.97683
1752.00319,0.97642
1749.95406,0.97607
1747.90494,0.97571
1745.85581,0.97538
1743.80668,0.97511
1741.75756,0.97460
1739.70843,0.97384
1737.65930,0.97320
1735.61018,0.97219
1733.56105,0.97014
1731.51192,0.96833
1729.46280,0.96719
1727.41367,0.96630
1725.36454,0.96574
1723.31542,0.96568
1721.26629,0.96613
1719.21716,0.96703
1717.16804,0.96860
1715.11891,0.97045
1713.06978,0.97193
1711.02066,0.97301
1708.97153,0.97391
1706.92240,0.97478
1704.87328,0.97544
1702.82415,0.97585
1700.77502,0.97646
1698.72590,0.97717
1696.67677,0.97741
1694.62765,0.97750
1692.57852,0.97761
1690.52939,0.97767
1688.48027,0.97772
1686.43114,0.97778
1684.38201,0.97765
1682.33289,0.97745
1680.28376,0.97739
1678.23463,0.97739
1676.18551,0.97735
1674.13638,0.97711
1672.08725,0.97681
1670.03813,0.97663
1667.98900,0.97652
1665.93987,0.97646
1663.89075,0.97639
1661.84162,0.97613
1659.79249,0.97586
1657.74337,0.97577
1655.69424,0.97573
1653.64511,0.97549
1651.59599,0.97511
1649.54686,0.97511
1647.49773,0.97514
1645.44861,0.97485
1643.39948,0.97463
1641.35036,0.97467
1639.30123,0.97473
1637.25210,0.97477
1635.20298,0.97477
1633.15385,0.97464
1631.10472,0.97465
1629.05560,0.97482
1627.00647,0.97493
1624.95734,0.97489
1622.90822,0.97493
1620.85909,0.97510
1618.80996,0.97528
1616.76084,0.97559
1614.71171,0.97587
1612.66258,0.97592
1610.61346,0.97605
1608.56433,0.97625
1606.51520,0.97624
1604.46608,0.97622
1602.41695,0.97630
1600.36782,0.97636
1598.31870,0.97649
1596.26957,0.97669
1594.22044,0.97682
1592.17132,0.97679
1590.12219,0.97669
1588.07307,0.97673
1586.02394,0.97686
1583.97481,0.97691
1581.92569,0.97702
1579.87656,0.97728
1577.82743,0.97745
1575.77831,0.97729
1573.72918,0.97717
1571.68005,0.97731
1569.63093,0.97754
1567.58180,0.97769
1565.53267,0.97767
1563.48355,0.97752
1561.43442,0.97748
1559.38529,0.97763
1557.33617,0.97763
1555.28704,0.97752
1553.23791,0.97745
1551.18879,0.97729
1549.13966,0.97701
1547.09053,0.97685
1545.04141,0.97697
1542.99228,0.97723
1540.94315,0.97739
1538.89403,0.97738
1536.84490,0.97726
1534.79578,0.97705
1532.74665,0.97677
1530.69752,0.97652
1528.64840,0.97636
1526.59927,0.97632
1524.55014,0.97637
1522.50102,0.97625
1520.45189,0.97587
1518.40276,0.97571
1516.35364,0.97576
1514.30451,0.97566
1512.25538,0.97529
1510.20626,0.97490
1508.15713,0.97479
1506.10800,0.97478
1504.05888,0.97438
1502.00975,0.97384
1499.96062,0.97315
1497.91150,0.97215
1495.86237,0.97087
1493.81324,0.96962
1491.76412,0.96803
1489.71499,0.96499
1487.66587,0.96063
1485.61674,0.95626
1483.56761,0.95196
1481.51849,0.94756
1479.46936,0.94359
1477.42023,0.93971
1475.37111,0.93358
1473.32198,0.91837
1471.27285,0.89163
1469.22373,0.86848
1467.17460,0.85524
1465.12547,0.85374
1463.07635,0.86078
1461.02722,0.86668
1458.97809,0.86982
1456.92897,0.87260
1454.87984,0.87746
1452.83071,0.88403
1450.78159,0.89176
1448.73246,0.89948
1446.68333,0.90575
1444.63421,0.90975
1442.58508,0.91232
1440.53595,0.91420
1438.48683,0.91619
1436.43770,0.91991
1434.38858,0.92480
1432.33945,0.92937
1430.29032,0.93375
1428.24120,0.93707
1426.19207,0.93877
1424.14294,0.93944
1422.09382,0.93937
1420.04469,0.93887
1417.99556,0.93848
1415.94644,0.93877
1413.89731,0.93946
1411.84818,0.94022
1409.79906,0.94108
1407.74993,0.94204
1405.70080,0.94327
1403.65168,0.94479
1401.60255,0.94620
1399.55342,0.94731
1397.50430,0.94805
1395.45517,0.94847
1393.40604,0.94870
1391.35692,0.94860
1389.30779,0.94793
1387.25866,0.94619
1385.20954,0.94309
1383.16041,0.93833
1381.11129,0.93158
1379.06216,0.92485
1377.01303,0.92151
1374.96391,0.92212
1372.91478,0.92399
1370.86565,0.92510
1368.81653,0.92611
1366.76740,0.92776
1364.71827,0.92970
1362.66915,0.93160
1360.62002,0.93318
1358.57089,0.93411
1356.52177,0.93437
1354.47264,0.93415
1352.42351,0.93391
1350.37439,0.93404
1348.32526,0.93465
1346.27613,0.93561
1344.22701,0.93666
1342.17788,0.93767
1340.12875,0.93889
1338.07963,0.94047
1336.03050,0.94171
1333.98137,0.94193
1331.93225,0.94140
1329.88312,0.94081
1327.83400,0.94035
1325.78487,0.94000
1323.73574,0.93981
1321.68662,0.93963
1319.63749,0.93905
1317.58836,0.93794
1315.53924,0.93652
1313.49011,0.93488
1311.44098,0.93296
1309.39186,0.93095
1307.34273,0.92910
1305.29360,0.92746
1303.24448,0.92606
1301.19535,0.92521
1299.14622,0.92517
1297.09710,0.92568
1295.04797,0.92646
1292.99884,0.92745
1290.94972,0.92839
1288.90059,0.92893
1286.85146,0.92890
1284.80234,0.92837
1282.75321,0.92764
1280.70408,0.92698
1278.65496,0.92631
1276.60583,0.92565
1274.55671,0.92521
1272.50758,0.92483
1270.45845,0.92432
1268.40933,0.92383
1266.36020,0.92372
1264.31107,0.92425
1262.26195,0.92533
1260.21282,0.92686
1258.16369,0.92878
1256.11457,0.93088
1254.06544,0.93303
1252.01631,0.93508
1249.96719,0.93664
1247.91806,0.93743
1245.86893,0.93776
1243.81981,0.93842
1241.77068,0.93976
1239.72155,0.94112
1237.67243,0.94187
1235.62330,0.94204
1233.57417,0.94171
1231.52505,0.94097
1229.47592,0.93993
1227.42680,0.93886
1225.37767,0.93796
1223.32854,0.93733
1221.27942,0.93714
1219.23029,0.93749
1217.18116,0.93831
1215.13204,0.93950
1213.08291,0.94106
1211.03378,0.94284
1208.98466,0.94455
1206.93553,0.94604
1204.88640,0.94738
1202.83728,0.94851
1200.78815,0.94920
1198.73902,0.94942
1196.68990,0.94917
1194.64077,0.94848
1192.59164,0.94740
1190.54252,0.94603
1188.49339,0.94431
1186.44426,0.94202
1184.39514,0.93931
1182.34601,0.93635
1180.29688,0.93327
1178.24776,0.93037
1176.19863,0.92791
1174.14951,0.92568
1172.10038,0.92299
1170.05125,0.91944
1168.00213,0.91513
1165.95300,0.91018
1163.90387,0.90442
1161.85475,0.89785
1159.80562,0.89059
1157.75649,0.88269
1155.70737,0.87425
1153.65824,0.86551
1151.60911,0.85669
1149.55999,0.84787
1147.51086,0.83897
1145.46173,0.82996
1143.41261,0.82109
1141.36348,0.81218
1139.31435,0.80269
1137.26523,0.79212
1135.21610,0.78007
1133.16697,0.76665
1131.11785,0.75227
1129.06872,0.73740
1127.01959,0.72274
1124.97047,0.70897
1122.92134,0.69677
1120.87222,0.68694
1118.82309,0.67978
1116.77396,0.67505
1114.72484,0.67263
1112.67571,0.67254
1110.62658,0.67462
1108.57746,0.67838
1106.52833,0.68301
1104.47920,0.68804
1102.43008,0.69347
1100.38095,0.69917
1098.33182,0.70490
1096.28270,0.71047
1094.23357,0.71566
1092.18444,0.72045
1090.13532,0.72485
1088.08619,0.72869
1086.03706,0.73204
1083.98794,0.73520
1081.93881,0.73841
1079.88968,0.74191
1077.84056,0.74594
1075.79143,0.75054
1073.74230,0.75568
1071.69318,0.76127
1069.64405,0.76717
1067.59493,0.77324
1065.54580,0.77926
1063.49667,0.78474
1061.44755,0.78954
1059.39842,0.79376
1057.34929,0.79734
1055.30017,0.80015
1053.25104,0.80209
1051.20191,0.80336
1049.15279,0.80430
1047.10366,0.80530
1045.05453,0.80675
1043.00541,0.80845
1040.95628,0.80992
1038.90715,0.81075
1036.85803,0.81075
1034.80890,0.80967
1032.75977,0.80724
1030.71065,0.80352
1028.66152,0.79915
1026.61239,0.79495
1024.56327,0.79139
1022.51414,0.78880
1020.46501,0.78760
1018.41589,0.78790
1016.36676,0.78980
1014.31764,0.79394
1012.26851,0.80108
1010.21938,0.81090
1008.17026,0.82209
1006.12113,0.83357
1004.07200,0.84464
1002.02288,0.85466
999.97375,0.86337
997.92462,0.87076
995.87550,0.87687
993.82637,0.88199
991.77724,0.88639
989.72812,0.89011
987.67899,0.89352
985.62986,0.89719
983.58074,0.90117
981.53161,0.90514
979.48248,0.90902
977.43336,0.91273
975.38423,0.91601
973.33510,0.91866
971.28598,0.92043
969.23685,0.92156
967.18772,0.92252
965.13860,0.92326
963.08947,0.92371
961.04035,0.92438
958.99122,0.92540
956.94209,0.92648
954.89297,0.92785
952.84384,0.92938
950.79471,0.93047
948.74559,0.93141
946.69646,0.93224
944.64733,0.93236
942.59821,0.93190
940.54908,0.93136
938.49995,0.93069
936.45083,0.92963
934.40170,0.92869
932.35257,0.92868
930.30345,0.92929
928.25432,0.92961
926.20519,0.92968
924.15607,0.92998
922.10694,0.93044
920.05781,0.93064
918.00869,0.93038
915.95956,0.92978
913.91044,0.92928
911.86131,0.92897
909.81218,0.92873
907.76306,0.92862
905.71393,0.92845
903.66480,0.92828
901.61568,0.92842
899.56655,0.92861
897.51742,0.92851
895.46830,0.92816
893.41917,0.92784
891.37004,0.92752
889.32092,0.92714
887.27179,0.92695
885.22266,0.92645
883.17354,0.92552
881.12441,0.92519
879.07528,0.92552
877.02616,0.92577
874.97703,0.92605
872.92790,0.92659
870.87878,0.92721
868.82965,0.92786
866.78052,0.92854
864.73140,0.92931
862.68227,0.93015
860.63315,0.93091
858.58402,0.93180
856.53489,0.93258
854.48577,0.93303
852.43664,0.93375
850.38751,0.93473
848.33839,0.93585
846.28926,0.93715
844.24013,0.93823
842.19101,0.93919
840.14188,0.94036
838.09275,0.94168
836.04363,0.94296
833.99450,0.94399
831.94537,0.94516
829.89625,0.94665
827.84712,0.94789
825.79799,0.94892
823.74887,0.95021
821.69974,0.95174
819.65061,0.95321
817.60149,0.95390
815.55236,0.95404
813.50323,0.95471
811.45411,0.95556
809.40498,0.95601
807.35586,0.95636
805.30673,0.95660
803.25760,0.95699
801.20848,0.95773
799.15935,0.95819
797.11022,0.95805
795.06110,0.95747
793.01197,0.95713
790.96284,0.95733
788.91372,0.95733
786.86459,0.95689
784.81546,0.95629
782.76634,0.95566
780.71721,0.95492
778.66808,0.95408
776.61896,0.95343
774.56983,0.95285
772.52070,0.95203
770.47158,0.95102
768.42245,0.94967
766.37332,0.94795
764.32420,0.94598
762.27507,0.94403
760.22594,0.94278
758.17682,0.94249
756.12769,0.94254
754.07857,0.94222
752.02944,0.94144
749.98031,0.94054
747.93119,0.93959
745.88206,0.93849
743.83293,0.93746
741.78381,0.93671
739.73468,0.93576
737.68555,0.93390
735.63643,0.93115
733.58730,0.92789
731.53817,0.92381
729.48905,0.91808
727.43992,0.90967
725.39079,0.89787
723.34167,0.88462
721.29254,0.87693
719.24341,0.88140
717.19429,0.89449
715.14516,0.90761
713.09603,0.91720
711.04691,0.92386
708.99778,0.92868
706.94865,0.93222
704.89953,0.93477
702.85040,0.93580
700.80128,0.93550
698.75215,0.93540
696.70302,0.93633
694.65390,0.93821
692.60477,0.94048
690.55564,0.94258
688.50652,0.94453
686.45739,0.94581
684.40826,0.94593
682.35914,0.94583
680.31001,0.94631
678.26088,0.94685
676.21176,0.94716
674.16263,0.94749
672.11350,0.94773
670.06438,0.94803
668.01525,0.94818
665.96612,0.94783
663.91700,0.94796
661.86787,0.94827
659.81874,0.94819
657.76962,0.94830
655.72049,0.94904
653.67136,0.94950
651.62224,0.94918
649.57311,0.94880
647.52399,0.94876
645.47486,0.94886
643.42573,0.94868
641.37661,0.94854
639.32748,0.94896
637.27835,0.94958
635.22923,0.95005
633.18010,0.95056
631.13097,0.95103
629.08185,0.95087
627.03272,0.95058
624.98359,0.95082
622.93447,0.95075
620.88534,0.95053
618.83621,0.95037
616.78709,0.94971
614.73796,0.94939
612.68883,0.94902
610.63971,0.94817
608.59058,0.94816
606.54145,0.94839
604.49233,0.94757
602.44320,0.94604
600.39408,0.94478
598.34495,0.94458
596.29582,0.94430
594.24670,0.94357
592.19757,0.94363
590.14844,0.94361
588.09932,0.94316
586.05019,0.94320
584.00106,0.94364
581.95194,0.94393
579.90281,0.94358
577.85368,0.94298
575.80456,0.94294
573.75543,0.94295
571.70630,0.94228
569.65718,0.94193
567.60805,0.94215
565.55892,0.94253
563.50980,0.94324
561.46067,0.94367
559.41154,0.94349
557.36242,0.94277
555.31329,0.94170
553.26416,0.94084
551.21504,0.94077
549.16591,0.94118
547.11679,0.94097
545.06766,0.93967
543.01853,0.93907
540.96941,0.94059
538.92028,0.94187
536.87115,0.94153
534.82203,0.94113
532.77290,0.94057
530.72377,0.93916
528.67465,0.93869
526.62552,0.93988
524.57639,0.94084
522.52727,0.94067
520.47814,0.93951
518.42901,0.93802
516.37989,0.93733
514.33076,0.93772
512.28163,0.93858
510.23251,0.93851
508.18338,0.93713
506.13425,0.93656
504.08513,0.93758
502.03600,0.93803
499.98687,0.93766
497.93775,0.93843
495.88862,0.94009
493.83950,0.94072
491.79037,0.94032
489.74124,0.94008
487.69212,0.93967
485.64299,0.93859
483.59386,0.93744
481.54474,0.93749
479.49561,0.93914
477.44648,0.94050
475.39736,0.93987
473.34823,0.93871
471.29910,0.93895
469.24998,0.93950
467.20085,0.93905
465.15172,0.93795
463.10260,0.93728
461.05347,0.93687
459.00434,0.93598
456.95522,0.93608
454.90609,0.93813
452.85696,0.94048
450.80784,0.94148
448.75871,0.94083
446.70958,0.94015
444.66046,0.93974
442.61133,0.93810
440.56221,0.93696
438.51308,0.93717
436.46395,0.93641
434.41483,0.93492
432.36570,0.93464
430.31657,0.93609
428.26745,0.93735
426.21832,0.93674
424.16919,0.93472
422.12007,0.93242
420.07094,0.93283
418.02181,0.93752
415.97269,0.94002
413.92356,0.94059
411.87443,0.94203
409.82531,0.94301
407.77618,0.94252
405.72705,0.94040
403.67793,0.93671
401.62880,0.93413
399.57967,0.93479
