3997.84587,0.99000
3995.79675,0.99019
3993.74762,0.99033
3991.69849,0.99038
3989.64937,0.99044
3987.60024,0.99032
3985.55111,0.99006
3983.50199,0.99000
3981.45286,0.99011
3979.40373,0.99027
3977.35461,0.99048
3975.30548,0.99067
3973.25635,0.99064
3971.20723,0.99023
3969.15810,0.98997
3967.10897,0.99025
3965.05985,0.99059
3963.01072,0.99073
3960.96159,0.99068
3958.91247,0.99040
3956.86334,0.99022
3954.81421,0.99041
3952.76509,0.99069
3950.71596,0.99056
3948.66683,0.99008
3946.61771,0.98976
3944.56858,0.98987
3942.51946,0.99048
3940.47033,0.99121
3938.42120,0.99128
3936.37208,0.99093
3934.32295,0.99087
3932.27382,0.99107
3930.22470,0.99108
3928.17557,0.99092
3926.12644,0.99080
3924.07732,0.99097
3922.02819,0.99123
3919.97906,0.99113
3917.92994,0.99086
3915.88081,0.99069
3913.83168,0.99051
3911.78256,0.99066
3909.73343,0.99128
3907.68430,0.99169
3905.63518,0.99161
3903.58605,0.99152
3901.53692,0.99141
3899.48780,0.99098
3897.43867,0.99076
3895.38954,0.99076
3893.34042,0.99072
3891.29129,0.99067
3889.24217,0.99040
3887.19304,0.99005
3885.14391,0.99032
3883.09479,0.99087
3881.04566,0.99094
3878.99653,0.99079
3876.94741,0.99073
3874.89828,0.99082
3872.84915,0.99084
3870.80003,0.99072
3868.75090,0.99064
3866.70177,0.99035
3864.65265,0.99024
3862.60352,0.99072
3860.55439,0.99110
3858.50527,0.99098
3856.45614,0.99060
3854.40701,0.99046
3852.35789,0.99103
3850.30876,0.99113
3848.25963,0.99079
3846.21051,0.99074
3844.16138,0.99092
3842.11225,0.99102
3840.06313,0.99101
3838.01400,0.99089
3835.96488,0.99090
3833.91575,0.99119
3831.86662,0.99144
3829.81750,0.99143
3827.76837,0.99135
3825.71924,0.99129
3823.67012,0.99115
3821.62099,0.99108
3819.57186,0.99104
3817.52274,0.99088
3815.47361,0.99101
3813.42448,0.99107
3811.37536,0.99072
3809.32623,0.99056
3807.27710,0.99105
3805.22798,0.99158
3803.17885,0.99147
3801.12972,0.99141
3799.08060,0.99171
3797.03147,0.99181
3794.98234,0.99172
3792.93322,0.99149
3790.88409,0.99136
3788.83496,0.99179
3786.78584,0.99249
3784.73671,0.99262
3782.68759,0.99204
3780.63846,0.99156
3778.58933,0.99152
3776.54021,0.99144
3774.49108,0.99119
3772.44195,0.99113
3770.39283,0.99129
3768.34370,0.99140
3766.29457,0.99148
3764.24545,0.99185
3762.19632,0.99215
3760.14719,0.99194
3758.09807,0.99172
3756.04894,0.99199
3753.99981,0.99220
3751.95069,0.99190
3749.90156,0.99157
3747.85243,0.99151
3745.80331,0.99145
3743.75418,0.99169
3741.70505,0.99171
3739.65593,0.99142
3737.60680,0.99120
3735.55767,0.99119
3733.50855,0.99172
3731.45942,0.99226
3729.41030,0.99226
3727.36117,0.99213
3725.31204,0.99226
3723.26292,0.99236
3721.21379,0.99199
3719.16466,0.99147
3717.11554,0.99143
3715.06641,0.99179
3713.01728,0.99189
3710.96816,0.99166
3708.91903,0.99168
3706.86990,0.99200
3704.82078,0.99226
3702.77165,0.99234
3700.72252,0.99228
3698.67340,0.99200
3696.62427,0.99160
3694.57514,0.99141
3692.52602,0.99145
3690.47689,0.99179
3688.42776,0.99235
3686.37864,0.99231
3684.32951,0.99198
3682.28039,0.99193
3680.23126,0.99211
3678.18213,0.99225
3676.13301,0.99220
3674.08388,0.99203
3672.03475,0.99207
3669.98563,0.99246
3667.93650,0.99254
3665.88737,0.99218
3663.83825,0.99191
3661.78912,0.99168
3659.73999,0.99121
3657.69087,0.99079
3655.64174,0.99094
3653.59261,0.99125
3651.54349,0.99109
3649.49436,0.99073
3647.44523,0.99076
3645.39611,0.99098
3643.34698,0.99109
3641.29785,0.99094
3639.24873,0.99073
3637.19960,0.99067
3635.15047,0.99031
3633.10135,0.98964
3631.05222,0.98920
3629.00310,0.98954
3626.95397,0.99020
3624.90484,0.99013
3622.85572,0.98969
3620.80659,0.98929
3618.75746,0.98891
3616.70834,0.98859
3614.65921,0.98852
3612.61008,0.98891
3610.56096,0.98941
3608.51183,0.98939
3606.46270,0.98908
3604.41358,0.98882
3602.36445,0.98857
3600.31532,0.98857
3598.26620,0.98897
3596.21707,0.98942
3594.16794,0.98938
3592.11882,0.98854
3590.06969,0.98732
3588.02056,0.98653
3585.97144,0.98662
3583.92231,0.98706
3581.87318,0.98743
3579.82406,0.98748
3577.77493,0.98715
3575.72581,0.98708
3573.67668,0.98758
3571.62755,0.98776
3569.57843,0.98713
3567.52930,0.98632
3565.48017,0.98585
3563.43105,0.98560
3561.38192,0.98560
3559.33279,0.98578
3557.28367,0.98571
3555.23454,0.98521
3553.18541,0.98477
3551.13629,0.98469
3549.08716,0.98464
3547.03803,0.98461
3544.98891,0.98468
3542.93978,0.98464
3540.89065,0.98431
3538.84153,0.98372
3536.79240,0.98319
3534.74327,0.98295
3532.69415,0.98275
3530.64502,0.98248
3528.59589,0.98233
3526.54677,0.98240
3524.49764,0.98253
3522.44852,0.98236
3520.39939,0.98207
3518.35026,0.98205
3516.30114,0.98186
3514.25201,0.98137
3512.20288,0.98110
3510.15376,0.98108
3508.10463,0.98093
3506.05550,0.98057
3504.00638,0.98018
3501.95725,0.97999
3499.90812,0.97997
3497.85900,0.97979
3495.80987,0.97942
3493.76074,0.97901
3491.71162,0.97863
3489.66249,0.97844
3487.61336,0.97844
3485.56424,0.97836
3483.51511,0.97819
3481.46598,0.97812
3479.41686,0.97799
3477.36773,0.97769
3475.31860,0.97753
3473.26948,0.97749
3471.22035,0.97736
3469.17123,0.97733
3467.12210,0.97739
3465.07297,0.97711
3463.02385,0.97650
3460.97472,0.97595
3458.92559,0.97553
3456.87647,0.97541
3454.82734,0.97561
3452.77821,0.97592
3450.72909,0.97628
3448.67996,0.97620
3446.63083,0.97549
3444.58171,0.97509
3442.53258,0.97525
3440.48345,0.97523
3438.43433,0.97506
3436.38520,0.97511
3434.33607,0.97524
3432.28695,0.97524
3430.23782,0.97507
3428.18869,0.97491
3426.13957,0.97482
3424.09044,0.97448
3422.04131,0.97409
3419.99219,0.97410
3417.94306,0.97437
3415.89394,0.97450
3413.84481,0.97434
3411.79568,0.97409
3409.74656,0.97392
3407.69743,0.97390
3405.64830,0.97402
3403.59918,0.97415
3401.55005,0.97425
3399.50092,0.97428
3397.45180,0.97422
3395.40267,0.97424
3393.35354,0.97431
3391.30442,0.97420
3389.25529,0.97404
3387.20616,0.97394
3385.15704,0.97390
3383.10791,0.97388
3381.05878,0.97392
3379.00966,0.97403
3376.96053,0.97408
3374.91140,0.97386
3372.86228,0.97341
3370.81315,0.97316
3368.76403,0.97316
3366.71490,0.97315
3364.66577,0.97328
3362.61665,0.97341
3360.56752,0.97310
3358.51839,0.97278
3356.46927,0.97294
3354.42014,0.97326
3352.37101,0.97330
3350.32189,0.97307
3348.27276,0.97277
3346.22363,0.97254
3344.17451,0.97250
3342.12538,0.97256
3340.07625,0.97255
3338.02713,0.97257
3335.97800,0.97259
3333.92887,0.97257
3331.87975,0.97255
3329.83062,0.97256
3327.78149,0.97258
3325.73237,0.97253
3323.68324,0.97232
3321.63411,0.97228
3319.58499,0.97262
3317.53586,0.97300
3315.48674,0.97329
3313.43761,0.97335
3311.38848,0.97301
3309.33936,0.97266
3307.29023,0.97259
3305.24110,0.97260
3303.19198,0.97259
3301.14285,0.97259
3299.09372,0.97273
3297.04460,0.97306
3294.99547,0.97327
3292.94634,0.97323
3290.89722,0.97314
3288.84809,0.97307
3286.79896,0.97286
3284.74984,0.97262
3282.70071,0.97279
3280.65158,0.97323
3278.60246,0.97349
3276.55333,0.97369
3274.50420,0.97414
3272.45508,0.97456
3270.40595,0.97470
3268.35682,0.97478
3266.30770,0.97483
3264.25857,0.97478
3262.20945,0.97484
3260.16032,0.97501
3258.11119,0.97501
3256.06207,0.97508
3254.01294,0.97561
3251.96381,0.97606
3249.91469,0.97601
3247.86556,0.97591
3245.81643,0.97599
3243.76731,0.97624
3241.71818,0.97665
3239.66905,0.97690
3237.61993,0.97691
3235.57080,0.97676
3233.52167,0.97669
3231.47255,0.97686
3229.42342,0.97700
3227.37429,0.97711
3225.32517,0.97742
3223.27604,0.97778
3221.22691,0.97797
3219.17779,0.97809
3217.12866,0.97804
3215.07953,0.97789
3213.03041,0.97788
3210.98128,0.97788
3208.93216,0.97794
3206.88303,0.97824
3204.83390,0.97849
3202.78478,0.97858
3200.73565,0.97875
3198.68652,0.97901
3196.63740,0.97927
3194.58827,0.97949
3192.53914,0.97961
3190.49002,0.97959
3188.44089,0.97955
3186.39176,0.97969
3184.34264,0.97990
3182.29351,0.98002
3180.24438,0.98011
3178.19526,0.98024
3176.14613,0.98035
3174.09700,0.98035
3172.04788,0.98048
3169.99875,0.98070
3167.94962,0.98071
3165.90050,0.98079
3163.85137,0.98107
3161.80224,0.98116
3159.75312,0.98112
3157.70399,0.98109
3155.65487,0.98102
3153.60574,0.98112
3151.55661,0.98133
3149.50749,0.98146
3147.45836,0.98173
3145.40923,0.98197
3143.36011,0.98193
3141.31098,0.98189
3139.26185,0.98202
3137.21273,0.98215
3135.16360,0.98229
3133.11447,0.98248
3131.06535,0.98258
3129.01622,0.98266
3126.96709,0.98278
3124.91797,0.98266
3122.86884,0.98237
3120.81971,0.98228
3118.77059,0.98253
3116.72146,0.98284
3114.67233,0.98298
3112.62321,0.98304
3110.57408,0.98306
3108.52495,0.98324
3106.47583,0.98347
3104.42670,0.98336
3102.37758,0.98317
3100.32845,0.98324
3098.27932,0.98327
3096.23020,0.98309
3094.18107,0.98306
3092.13194,0.98318
3090.08282,0.98307
3088.03369,0.98290
3085.98456,0.98315
3083.93544,0.98355
3081.88631,0.98352
3079.83718,0.98323
3077.78806,0.98305
3075.73893,0.98294
3073.68980,0.98284
3071.64068,0.98285
3069.59155,0.98287
3067.54242,0.98269
3065.49330,0.98230
3063.44417,0.98195
3061.39504,0.98198
3059.34592,0.98231
3057.29679,0.98250
3055.24767,0.98250
3053.19854,0.98232
3051.14941,0.98203
3049.10029,0.98186
3047.05116,0.98171
3045.00203,0.98145
3042.95291,0.98137
3040.90378,0.98148
3038.85465,0.98138
3036.80553,0.98123
3034.75640,0.98127
3032.70727,0.98127
3030.65815,0.98106
3028.60902,0.98081
3026.55989,0.98067
3024.51077,0.98040
3022.46164,0.97999
3020.41251,0.97975
3018.36339,0.97953
3016.31426,0.97932
3014.26513,0.97923
3012.21601,0.97904
3010.16688,0.97855
3008.11775,0.97791
3006.06863,0.97748
3004.01950,0.97706
3001.97038,0.97643
2999.92125,0.97585
2997.87212,0.97519
2995.82300,0.97415
2993.77387,0.97293
2991.72474,0.97175
2989.67562,0.97026
2987.62649,0.96838
2985.57736,0.96645
2983.52824,0.96419
2981.47911,0.96116
2979.42998,0.95747
2977.38086,0.95314
2975.33173,0.94784
2973.28260,0.94123
2971.23348,0.93285
2969.18435,0.92234
2967.13522,0.90978
2965.08610,0.89566
2963.03697,0.88101
2960.98784,0.86705
2958.93872,0.85484
2956.88959,0.84518
2954.84046,0.83855
2952.79134,0.83491
2950.74221,0.83334
2948.69309,0.83154
2946.64396,0.82674
2944.59483,0.81744
2942.54571,0.80352
2940.49658,0.78523
2938.44745,0.76300
2936.39833,0.73754
2934.34920,0.70945
2932.30007,0.67924
2930.25095,0.64787
2928.20182,0.61686
2926.15269,0.58822
2924.10357,0.56509
2922.05444,0.55158
2920.00531,0.55064
2917.95619,0.56193
2915.90706,0.58219
2913.85793,0.60679
2911.80881,0.63160
2909.75968,0.65435
2907.71055,0.67462
2905.66143,0.69270
2903.61230,0.70892
2901.56317,0.72356
2899.51405,0.73685
2897.46492,0.74919
2895.41580,0.76099
2893.36667,0.77223
2891.31754,0.78280
2889.26842,0.79243
2887.21929,0.80067
2885.17016,0.80720
2883.12104,0.81164
2881.07191,0.81343
2879.02278,0.81227
2876.97366,0.80807
2874.92453,0.80104
2872.87540,0.79290
2870.82628,0.78624
2868.77715,0.78153
2866.72802,0.77620
2864.67890,0.76672
2862.62977,0.75060
2860.58064,0.72738
2858.53152,0.69891
2856.48239,0.66891
2854.43326,0.64323
2852.38414,0.62947
2850.33501,0.63353
2848.28588,0.65582
2846.23676,0.69145
2844.18763,0.73323
2842.13851,0.77430
2840.08938,0.81015
2838.04025,0.83929
2835.99113,0.86206
2833.94200,0.87943
2831.89287,0.89258
2829.84375,0.90256
2827.79462,0.91019
2825.74549,0.91609
2823.69637,0.92085
2821.64724,0.92491
2819.59811,0.92862
2817.54899,0.93206
2815.49986,0.93498
2813.45073,0.93726
2811.40161,0.93910
2809.35248,0.94061
2807.30335,0.94177
2805.25423,0.94278
2803.20510,0.94384
2801.15597,0.94491
2799.10685,0.94600
2797.05772,0.94724
2795.00859,0.94873
2792.95947,0.95039
2790.91034,0.95210
2788.86122,0.95382
2786.81209,0.95556
2784.76296,0.95709
2782.71384,0.95831
2780.66471,0.95945
2778.61558,0.96055
2776.56646,0.96163
2774.51733,0.96279
2772.46820,0.96375
2770.41908,0.96440
2768.36995,0.96495
2766.32082,0.96541
2764.27170,0.96569
2762.22257,0.96600
2760.17344,0.96640
2758.12432,0.96664
2756.07519,0.96667
2754.02606,0.96671
2751.97694,0.96685
2749.92781,0.96692
2747.87868,0.96696
2745.82956,0.96722
2743.78043,0.96755
2741.73131,0.96772
2739.68218,0.96774
2737.63305,0.96772
2735.58393,0.96773
2733.53480,0.96773
2731.48567,0.96772
2729.43655,0.96793
2727.38742,0.96823
2725.33829,0.96848
2723.28917,0.96886
2721.24004,0.96930
2719.19091,0.96959
2717.14179,0.96989
2715.09266,0.97036
2713.04353,0.97076
2710.99441,0.97101
2708.94528,0.97127
2706.89615,0.97144
2704.84703,0.97165
2702.79790,0.97193
2700.74877,0.97205
2698.69965,0.97201
2696.65052,0.97207
2694.60139,0.97236
2692.55227,0.97259
2690.50314,0.97254
2688.45402,0.97238
2686.40489,0.97227
2684.35576,0.97224
2682.30664,0.97224
2680.25751,0.97218
2678.20838,0.97223
2676.15926,0.97239
2674.11013,0.97254
2672.06100,0.97273
2670.01188,0.97303
2667.96275,0.97330
2665.91362,0.97336
2663.86450,0.97335
2661.81537,0.97351
2659.76624,0.97380
2657.71712,0.97408
2655.66799,0.97425
2653.61886,0.97443
2651.56974,0.97475
2649.52061,0.97506
2647.47148,0.97513
2645.42236,0.97508
2643.37323,0.97533
2641.32410,0.97581
2639.27498,0.97625
2637.22585,0.97658
2635.17673,0.97669
2633.12760,0.97664
2631.07847,0.97689
2629.02935,0.97725
2626.98022,0.97725
2624.93109,0.97728
2622.88197,0.97769
2620.83284,0.97825
2618.78371,0.97870
2616.73459,0.97892
2614.68546,0.97921
2612.63633,0.97953
2610.58721,0.97949
2608.53808,0.97947
2606.48895,0.97970
2604.43983,0.97976
2602.39070,0.97978
2600.34157,0.98005
2598.29245,0.98036
2596.24332,0.98061
2594.19419,0.98078
2592.14507,0.98100
2590.09594,0.98133
2588.04681,0.98143
2585.99769,0.98137
2583.94856,0.98139
2581.89944,0.98137
2579.85031,0.98142
2577.80118,0.98171
2575.75206,0.98194
2573.70293,0.98190
2571.65380,0.98183
2569.60468,0.98178
2567.55555,0.98172
2565.50642,0.98182
2563.45730,0.98208
2561.40817,0.98235
2559.35904,0.98277
2557.30992,0.98329
2555.26079,0.98328
2553.21166,0.98272
2551.16254,0.98237
2549.11341,0.98241
2547.06428,0.98255
2545.01516,0.98262
2542.96603,0.98278
2540.91690,0.98301
2538.86778,0.98301
2536.81865,0.98284
2534.76952,0.98290
2532.72040,0.98318
2530.67127,0.98336
2528.62215,0.98327
2526.57302,0.98300
2524.52389,0.98295
2522.47477,0.98304
2520.42564,0.98299
2518.37651,0.98284
2516.32739,0.98274
2514.27826,0.98305
2512.22913,0.98363
2510.18001,0.98379
2508.13088,0.98347
2506.08175,0.98310
2504.03263,0.98315
2501.98350,0.98341
2499.93437,0.98322
2497.88525,0.98297
2495.83612,0.98339
2493.78699,0.98399
2491.73787,0.98406
2489.68874,0.98386
2487.63961,0.98388
2485.59049,0.98396
2483.54136,0.98367
2481.49223,0.98326
2479.44311,0.98325
2477.39398,0.98352
2475.34486,0.98370
2473.29573,0.98379
2471.24660,0.98376
2469.19748,0.98350
2467.14835,0.98324
2465.09922,0.98329
2463.05010,0.98339
2461.00097,0.98334
2458.95184,0.98337
2456.90272,0.98351
2454.85359,0.98361
2452.80446,0.98367
2450.75534,0.98378
2448.70621,0.98392
2446.65708,0.98403
2444.60796,0.98414
2442.55883,0.98420
2440.50970,0.98426
2438.46058,0.98437
2436.41145,0.98446
2434.36232,0.98436
2432.31320,0.98414
2430.26407,0.98408
2428.21495,0.98406
2426.16582,0.98394
2424.11669,0.98373
2422.06757,0.98338
2420.01844,0.98340
2417.96931,0.98389
2415.92019,0.98412
2413.87106,0.98390
2411.82193,0.98373
2409.77281,0.98383
2407.72368,0.98418
2405.67455,0.98430
2403.62543,0.98389
2401.57630,0.98345
2399.52717,0.98335
2397.47805,0.98353
2395.42892,0.98384
2393.37979,0.98413
2391.33067,0.98408
2389.28154,0.98362
2387.23241,0.98320
2385.18329,0.98314
2383.13416,0.98326
2381.08503,0.98333
2379.03591,0.98322
2376.98678,0.98302
2374.93766,0.98313
2372.88853,0.98340
2370.83940,0.98354
2368.79028,0.98377
2366.74115,0.98410
2364.69202,0.98425
2362.64290,0.98418
2360.59377,0.98423
2358.54464,0.98390
2356.49552,0.98300
2354.44639,0.98233
2352.39726,0.98196
2350.34814,0.98165
2348.29901,0.98158
2346.24988,0.98175
2344.20076,0.98198
2342.15163,0.98236
2340.10250,0.98263
2338.05338,0.98243
2336.00425,0.98232
2333.95512,0.98255
2331.90600,0.98248
2329.85687,0.98157
2327.80774,0.98017
2325.75862,0.97916
2323.70949,0.97918
2321.66037,0.97997
2319.61124,0.98064
2317.56211,0.98091
2315.51299,0.98116
2313.46386,0.98174
2311.41473,0.98212
2309.36561,0.98193
2307.31648,0.98169
2305.26735,0.98147
2303.21823,0.98122
2301.16910,0.98127
2299.11997,0.98137
2297.07085,0.98125
2295.02172,0.98144
2292.97259,0.98176
2290.92347,0.98154
2288.87434,0.98117
2286.82521,0.98133
2284.77609,0.98196
2282.72696,0.98264
2280.67783,0.98297
2278.62871,0.98296
2276.57958,0.98296
2274.53045,0.98315
2272.48133,0.98342
2270.43220,0.98358
2268.38308,0.98362
2266.33395,0.98374
2264.28482,0.98412
2262.23570,0.98441
2260.18657,0.98420
2258.13744,0.98397
2256.08832,0.98431
2254.03919,0.98477
2251.99006,0.98462
2249.94094,0.98427
2247.89181,0.98459
2245.84268,0.98510
2243.79356,0.98480
2241.74443,0.98421
2239.69530,0.98425
2237.64618,0.98457
2235.59705,0.98515
2233.54792,0.98578
2231.49880,0.98539
2229.44967,0.98466
2227.40054,0.98495
2225.35142,0.98595
2223.30229,0.98661
2221.25316,0.98627
2219.20404,0.98540
2217.15491,0.98470
2215.10579,0.98411
2213.05666,0.98370
2211.00753,0.98410
2208.95841,0.98551
2206.90928,0.98647
2204.86015,0.98596
2202.81103,0.98551
2200.76190,0.98620
2198.71277,0.98673
2196.66365,0.98603
2194.61452,0.98539
2192.56539,0.98552
2190.51627,0.98538
2188.46714,0.98499
2186.41801,0.98499
2184.36889,0.98539
2182.31976,0.98613
2180.27063,0.98687
2178.22151,0.98691
2176.17238,0.98684
2174.12325,0.98731
2172.07413,0.98734
2170.02500,0.98659
2167.97587,0.98550
2165.92675,0.98488
2163.87762,0.98513
2161.82850,0.98575
2159.77937,0.98790
2157.73024,0.99083
2155.68112,0.99156
2153.63199,0.99046
2151.58286,0.98894
2149.53374,0.98749
2147.48461,0.98648
2145.43548,0.98599
2143.38636,0.98574
2141.33723,0.98565
2139.28810,0.98613
2137.23898,0.98672
2135.18985,0.98680
2133.14072,0.98653
2131.09160,0.98580
2129.04247,0.98484
2126.99334,0.98397
2124.94422,0.98330
2122.89509,0.98281
2120.84596,0.98247
2118.79684,0.98261
2116.74771,0.98294
2114.69859,0.98276
2112.64946,0.98206
2110.60033,0.98157
2108.55121,0.98171
2106.50208,0.98206
2104.45295,0.98216
2102.40383,0.98201
2100.35470,0.98188
2098.30557,0.98179
2096.25645,0.98159
2094.20732,0.98135
2092.15819,0.98132
2090.10907,0.98146
2088.05994,0.98128
2086.01081,0.98081
2083.96169,0.98044
2081.91256,0.98030
2079.86343,0.98026
2077.81431,0.98027
2075.76518,0.98031
2073.71605,0.98058
2071.66693,0.98139
2069.61780,0.98194
2067.56867,0.98125
2065.51955,0.98025
2063.47042,0.98021
2061.42130,0.98049
2059.37217,0.98029
2057.32304,0.97976
2055.27392,0.97949
2053.22479,0.97946
2051.17566,0.97930
2049.12654,0.97960
2047.07741,0.98024
2045.02828,0.98043
2042.97916,0.98049
2040.93003,0.98071
2038.88090,0.98083
2036.83178,0.98115
2034.78265,0.98181
2032.73352,0.98220
2030.68440,0.98214
2028.63527,0.98174
2026.58614,0.98110
2024.53702,0.98082
2022.48789,0.98092
2020.43876,0.98060
2018.38964,0.97975
2016.34051,0.97879
2014.29138,0.97841
2012.24226,0.97846
2010.19313,0.97866
2008.14401,0.97979
2006.09488,0.98150
2004.04575,0.98276
2001.99663,0.98331
1999.94750,0.98277
1997.89837,0.98101
1995.84925,0.97910
1993.80012,0.97865
1991.75099,0.98002
1989.70187,0.98182
1987.65274,0.98209
1985.60361,0.98066
1983.55449,0.97954
1981.50536,0.97981
1979.45623,0.98116
1977.40711,0.98272
1975.35798,0.98291
1973.30885,0.98231
1971.25973,0.98214
1969.21060,0.98163
1967.16147,0.98068
1965.11235,0.98046
1963.06322,0.98131
1961.01409,0.98221
1958.96497,0.98223
1956.91584,0.98169
1954.86672,0.98129
1952.81759,0.98117
1950.76846,0.98086
1948.71934,0.98047
1946.67021,0.98040
1944.62108,0.98054
1942.57196,0.98058
1940.52283,0.98061
1938.47370,0.98061
1936.42458,0.98021
1934.37545,0.97987
1932.32632,0.98037
1930.27720,0.98113
1928.22807,0.98144
1926.17894,0.98138
1924.12982,0.98113
1922.08069,0.98098
1920.03156,0.98111
1917.98244,0.98106
1915.93331,0.98065
1913.88418,0.98019
1911.83506,0.97984
1909.78593,0.97974
1907.73680,0.97989
1905.68768,0.98004
1903.63855,0.98007
1901.58943,0.97999
1899.54030,0.97988
1897.49117,0.97991
1895.44205,0.98005
1893.39292,0.98007
1891.34379,0.98000
1889.29467,0.97992
1887.24554,0.97974
1885.19641,0.97948
1883.14729,0.97943
1881.09816,0.97973
1879.04903,0.98006
1876.99991,0.98002
1874.95078,0.97947
1872.90165,0.97897
1870.85253,0.97878
1868.80340,0.97875
1866.75427,0.97896
1864.70515,0.97922
1862.65602,0.97925
1860.60689,0.97927
1858.55777,0.97954
1856.50864,0.97949
1854.45951,0.97876
1852.41039,0.97825
1850.36126,0.97837
1848.31214,0.97847
1846.26301,0.97851
1844.21388,0.97863
1842.16476,0.97843
1840.11563,0.97809
1838.06650,0.97791
1836.01738,0.97788
1833.96825,0.97779
1831.91912,0.97741
1829.87000,0.97683
1827.82087,0.97661
1825.77174,0.97692
1823.72262,0.97738
1821.67349,0.97769
1819.62436,0.97784
1817.57524,0.97776
1815.52611,0.97741
1813.47698,0.97717
1811.42786,0.97716
1809.37873,0.97702
1807.32960,0.97666
1805.28048,0.97625
1803.23135,0.97598
1801.18223,0.97591
1799.13310,0.97582
1797.08397,0.97571
1795.03485,0.97569
1792.98572,0.97577
1790.93659,0.97588
1788.88747,0.97575
1786.83834,0.97530
1784.78921,0.97493
1782.74009,0.97499
1780.69096,0.97517
1778.64183,0.97508
1776.59271,0.97474
1774.54358,0.97437
1772.49445,0.97417
1770.44533,0.97413
1768.39620,0.97385
1766.34707,0.97349
1764.29795,0.97331
1762.24882,0.97309
1760.19969,0.97265
1758.15057,0.97215
1756.10144,0.97168
1754.05231,0.97123
1752.00319,0.97069
1749.95406,0.97010
1747.90494,0.96963
1745.85581,0.96900
1743.80668,0.96813
1741.75756,0.96722
1739.70843,0.96634
1737.65930,0.96552
1735.61018,0.96470
1733.56105,0.96311
1731.51192,0.96100
1729.46280,0.95939
1727.41367,0.95846
1725.36454,0.95828
1723.31542,0.95876
1721.26629,0.95958
1719.21716,0.96067
1717.16804,0.96223
1715.11891,0.96353
1713.06978,0.96441
1711.02066,0.96523
1708.97153,0.96593
1706.92240,0.96646
1704.87328,0.96694
1702.82415,0.96744
1700.77502,0.96802
1698.72590,0.96839
1696.67677,0.96840
1694.62765,0.96836
1692.57852,0.96822
1690.52939,0.96807
1688.48027,0.96797
1686.43114,0.96783
1684.38201,0.96763
1682.33289,0.96731
1680.28376,0.96698
1678.23463,0.96680
1676.18551,0.96674
1674.13638,0.96658
1672.08725,0.96627
1670.03813,0.96581
1667.98900,0.96539
1665.93987,0.96517
1663.89075,0.96489
1661.84162,0.96449
1659.79249,0.96422
1657.74337,0.96415
1655.69424,0.96413
1653.64511,0.96417
1651.59599,0.96389
1649.54686,0.96338
1647.49773,0.96296
1645.44861,0.96271
1643.39948,0.96259
1641.35036,0.96252
1639.30123,0.96236
1637.25210,0.96222
1635.20298,0.96238
1633.15385,0.96249
1631.10472,0.96242
1629.05560,0.96231
1627.00647,0.96206
1624.95734,0.96191
1622.90822,0.96212
1620.85909,0.96223
1618.80996,0.96208
1616.76084,0.96213
1614.71171,0.96242
1612.66258,0.96252
1610.61346,0.96247
1608.56433,0.96246
1606.51520,0.96235
1604.46608,0.96213
1602.41695,0.96205
1600.36782,0.96219
1598.31870,0.96237
1596.26957,0.96256
1594.22044,0.96270
1592.17132,0.96278
1590.12219,0.96286
1588.07307,0.96291
1586.02394,0.96288
1583.97481,0.96280
1581.92569,0.96285
1579.87656,0.96299
1577.82743,0.96318
1575.77831,0.96341
1573.72918,0.96346
1571.68005,0.96350
1569.63093,0.96367
1567.58180,0.96363
1565.53267,0.96334
1563.48355,0.96298
1561.43442,0.96275
1559.38529,0.96303
1557.33617,0.96334
1555.28704,0.96305
1553.23791,0.96274
1551.18879,0.96268
1549.13966,0.96277
1547.09053,0.96274
1545.04141,0.96265
1542.99228,0.96273
1540.94315,0.96290
1538.89403,0.96252
1536.84490,0.96191
1534.79578,0.96163
1532.74665,0.96168
1530.69752,0.96166
1528.64840,0.96147
1526.59927,0.96124
1524.55014,0.96104
1522.50102,0.96090
1520.45189,0.96084
1518.40276,0.96071
1516.35364,0.96045
1514.30451,0.96004
1512.25538,0.95957
1510.20626,0.95925
1508.15713,0.95921
1506.10800,0.95890
1504.05888,0.95801
1502.00975,0.95717
1499.96062,0.95619
1497.91150,0.95485
1495.86237,0.95332
1493.81324,0.95204
1491.76412,0.95069
1489.71499,0.94809
1487.66587,0.94323
1485.61674,0.93701
1483.56761,0.93031
1481.51849,0.92335
1479.46936,0.91709
1477.42023,0.91151
1475.37111,0.90433
1473.32198,0.88899
1471.27285,0.86206
1469.22373,0.83670
1467.17460,0.81834
1465.12547,0.80820
1463.07635,0.80700
1461.02722,0.80900
1458.97809,0.81103
1456.92897,0.81445
1454.87984,0.82087
1452.83071,0.82897
1450.78159,0.83826
1448.73246,0.84740
1446.68333,0.85483
1444.63421,0.85957
1442.58508,0.86219
1440.53595,0.86350
1438.48683,0.86492
1436.43770,0.86892
1434.38858,0.87509
1432.33945,0.88141
1430.29032,0.88807
1428.24120,0.89363
1426.19207,0.89685
1424.14294,0.89847
1422.09382,0.89916
1420.04469,0.90013
1417.99556,0.90283
1415.94644,0.90680
1413.89731,0.91117
1411.84818,0.91554
1409.79906,0.91923
1407.74993,0.92185
1405.70080,0.92367
1403.65168,0.92482
1401.60255,0.92533
1399.55342,0.92541
1397.50430,0.92530
1395.45517,0.92507
1393.40604,0.92452
1391.35692,0.92356
1389.30779,0.92199
1387.25866,0.91905
1385.20954,0.91452
1383.16041,0.90816
1381.11129,0.89908
1379.06216,0.88928
1377.01303,0.88310
1374.96391,0.88166
1372.91478,0.88185
1370.86565,0.88148
1368.81653,0.88136
1366.76740,0.88242
1364.71827,0.88445
1362.66915,0.88695
1360.62002,0.88905
1358.57089,0.89015
1356.52177,0.89043
1354.47264,0.89009
1352.42351,0.88938
1350.37439,0.88872
1348.32526,0.88882
1346.27613,0.88993
1344.22701,0.89162
1342.17788,0.89353
1340.12875,0.89573
1338.07963,0.89811
1336.03050,0.90004
1333.98137,0.90122
1331.93225,0.90149
1329.88312,0.90083
1327.83400,0.89973
1325.78487,0.89888
1323.73574,0.89856
1321.68662,0.89857
1319.63749,0.89833
1317.58836,0.89726
1315.53924,0.89541
1313.49011,0.89297
1311.44098,0.89014
1309.39186,0.88727
1307.34273,0.88447
1305.29360,0.88179
1303.24448,0.87952
1301.19535,0.87798
1299.14622,0.87720
1297.09710,0.87695
1295.04797,0.87706
1292.99884,0.87741
1290.94972,0.87783
1288.90059,0.87816
1286.85146,0.87838
1284.80234,0.87840
1282.75321,0.87798
1280.70408,0.87705
1278.65496,0.87602
1276.60583,0.87538
1274.55671,0.87489
1272.50758,0.87387
1270.45845,0.87222
1268.40933,0.87060
1266.36020,0.86966
1264.31107,0.86969
1262.26195,0.87069
1260.21282,0.87268
1258.16369,0.87573
1256.11457,0.87969
1254.06544,0.88395
1252.01631,0.88783
1249.96719,0.89066
1247.91806,0.89216
1245.86893,0.89299
1243.81981,0.89398
1241.77068,0.89530
1239.72155,0.89664
1237.67243,0.89754
1235.62330,0.89766
1233.57417,0.89716
1231.52505,0.89628
1229.47592,0.89496
1227.42680,0.89316
1225.37767,0.89121
1223.32854,0.88955
1221.27942,0.88859
1219.23029,0.88868
1217.18116,0.88983
1215.13204,0.89158
1213.08291,0.89341
1211.03378,0.89500
1208.98466,0.89662
1206.93553,0.89874
1204.88640,0.90146
1202.83728,0.90433
1200.78815,0.90674
1198.73902,0.90844
1196.68990,0.90946
1194.64077,0.90980
1192.59164,0.90949
1190.54252,0.90829
1188.49339,0.90596
1186.44426,0.90272
1184.39514,0.89871
1182.34601,0.89416
1180.29688,0.88989
1178.24776,0.88636
1176.19863,0.88339
1174.14951,0.88065
1172.10038,0.87759
1170.05125,0.87373
1168.00213,0.86885
1165.95300,0.86281
1163.90387,0.85577
1161.85475,0.84774
1159.80562,0.83873
1157.75649,0.82911
1155.70737,0.81913
1153.65824,0.80881
1151.60911,0.79815
1149.55999,0.78732
1147.51086,0.77662
1145.46173,0.76630
1143.41261,0.75641
1141.36348,0.74672
1139.31435,0.73678
1137.26523,0.72615
1135.21610,0.71408
1133.16697,0.69968
1131.11785,0.68267
1129.06872,0.66342
1127.01959,0.64266
1124.97047,0.62147
1122.92134,0.60119
1120.87222,0.58311
1118.82309,0.56817
1116.77396,0.55685
1114.72484,0.54939
1112.67571,0.54576
1110.62658,0.54548
1108.57746,0.54784
1106.52833,0.55207
1104.47920,0.55738
1102.43008,0.56319
1100.38095,0.56929
1098.33182,0.57548
1096.28270,0.58179
1094.23357,0.58842
1092.18444,0.59526
1090.13532,0.60194
1088.08619,0.60846
1086.03706,0.61516
1083.98794,0.62212
1081.93881,0.62926
1079.88968,0.63644
1077.84056,0.64357
1075.79143,0.65077
1073.74230,0.65795
1071.69318,0.66485
1069.64405,0.67161
1067.59493,0.67877
1065.54580,0.68654
1063.49667,0.69486
1061.44755,0.70358
1059.39842,0.71232
1057.34929,0.72056
1055.30017,0.72804
1053.25104,0.73483
1051.20191,0.74104
1049.15279,0.74680
1047.10366,0.75224
1045.05453,0.75742
1043.00541,0.76248
1040.95628,0.76758
1038.90715,0.77292
1036.85803,0.77850
1034.80890,0.78372
1032.75977,0.78781
1030.71065,0.79058
1028.66152,0.79234
1026.61239,0.79391
1024.56327,0.79593
1022.51414,0.79824
1020.46501,0.80065
1018.41589,0.80313
1016.36676,0.80563
1014.31764,0.80837
1012.26851,0.81150
1010.21938,0.81482
1008.17026,0.81812
1006.12113,0.82146
1004.07200,0.82472
1002.02288,0.82755
999.97375,0.82988
997.92462,0.83192
995.87550,0.83368
993.82637,0.83516
991.77724,0.83647
989.72812,0.83776
987.67899,0.83925
985.62986,0.84117
983.58074,0.84384
981.53161,0.84716
979.48248,0.85058
977.43336,0.85371
975.38423,0.85645
973.33510,0.85870
971.28598,0.86026
969.23685,0.86140
967.18772,0.86252
965.13860,0.86358
963.08947,0.86445
961.04035,0.86530
958.99122,0.86654
956.94209,0.86833
954.89297,0.87024
952.84384,0.87176
950.79471,0.87291
948.74559,0.87383
946.69646,0.87436
944.64733,0.87444
942.59821,0.87414
940.54908,0.87356
938.49995,0.87265
936.45083,0.87142
934.40170,0.87004
932.35257,0.86885
930.30345,0.86826
928.25432,0.86817
926.20519,0.86821
924.15607,0.86824
922.10694,0.86818
920.05781,0.86814
918.00869,0.86809
915.95956,0.86760
913.91044,0.86655
911.86131,0.86528
909.81218,0.86399
907.76306,0.86264
905.71393,0.86119
903.66480,0.85995
901.61568,0.85937
899.56655,0.85946
897.51742,0.85979
895.46830,0.86007
893.41917,0.86032
891.37004,0.86046
889.32092,0.86053
887.27179,0.86087
885.22266,0.86151
883.17354,0.86215
881.12441,0.86253
879.07528,0.86290
877.02616,0.86358
874.97703,0.86431
872.92790,0.86484
870.87878,0.86523
868.82965,0.86591
866.78052,0.86712
864.73140,0.86841
862.68227,0.86979
860.63315,0.87117
858.58402,0.87212
856.53489,0.87284
854.48577,0.87356
852.43664,0.87424
850.38751,0.87510
848.33839,0.87623
846.28926,0.87744
844.24013,0.87856
842.19101,0.87966
840.14188,0.88078
838.09275,0.88195
836.04363,0.88333
833.99450,0.88480
831.94537,0.88612
829.89625,0.88722
827.84712,0.88811
825.79799,0.88901
823.74887,0.89014
821.69974,0.89142
819.65061,0.89255
817.60149,0.89322
815.55236,0.89353
813.50323,0.89370
811.45411,0.89383
809.40498,0.89419
807.35586,0.89482
805.30673,0.89547
803.25760,0.89572
801.20848,0.89521
799.15935,0.89466
797.11022,0.89492
795.06110,0.89494
793.01197,0.89393
790.96284,0.89288
788.91372,0.89219
786.86459,0.89158
784.81546,0.89101
782.76634,0.89007
780.71721,0.88856
778.66808,0.88716
776.61896,0.88599
774.56983,0.88459
772.52070,0.88312
770.47158,0.88203
768.42245,0.88104
766.37332,0.87984
764.32420,0.87897
762.27507,0.87834
760.22594,0.87718
758.17682,0.87573
756.12769,0.87415
754.07857,0.87212
752.02944,0.87024
749.98031,0.86872
747.93119,0.86691
745.88206,0.86453
743.83293,0.86182
741.78381,0.85913
739.73468,0.85630
737.68555,0.85318
735.63643,0.84994
733.58730,0.84607
731.53817,0.84101
729.48905,0.83498
727.43992,0.82773
725.39079,0.81873
723.34167,0.80906
721.29254,0.80215
719.24341,0.80221
717.19429,0.80907
715.14516,0.81794
713.09603,0.82531
711.04691,0.83124
708.99778,0.83725
706.94865,0.84323
704.89953,0.84759
702.85040,0.84919
700.80128,0.84866
698.75215,0.84800
696.70302,0.84880
694.65390,0.85124
692.60477,0.85406
690.55564,0.85571
688.50652,0.85604
686.45739,0.85651
684.40826,0.85756
682.35914,0.85794
680.31001,0.85739
678.26088,0.85705
676.21176,0.85785
674.16263,0.85898
672.11350,0.85930
670.06438,0.85927
668.01525,0.85850
665.96612,0.85677
663.91700,0.85589
661.86787,0.85588
659.81874,0.85593
657.76962,0.85559
655.72049,0.85522
653.67136,0.85524
651.62224,0.85589
649.57311,0.85710
647.52399,0.85831
645.47486,0.85940
643.42573,0.86013
641.37661,0.86022
639.32748,0.86065
637.27835,0.86148
635.22923,0.86175
633.18010,0.86143
631.13097,0.86104
629.08185,0.86096
627.03272,0.86087
624.98359,0.85967
622.93447,0.85771
620.88534,0.85675
618.83621,0.85658
616.78709,0.85571
614.73796,0.85456
612.68883,0.85427
610.63971,0.85418
608.59058,0.85363
606.54145,0.85329
604.49233,0.85337
602.44320,0.85253
600.39408,0.85027
598.34495,0.84861
596.29582,0.84898
594.24670,0.84976
592.19757,0.84943
590.14844,0.84889
588.09932,0.84850
586.05019,0.84797
584.00106,0.84748
581.95194,0.84681
579.90281,0.84659
577.85368,0.84710
575.80456,0.84727
573.75543,0.84697
571.70630,0.84686
569.65718,0.84695
567.60805,0.84722
565.55892,0.84731
563.50980,0.84674
561.46067,0.84618
559.41154,0.84590
557.36242,0.84556
555.31329,0.84578
553.26416,0.84688
551.21504,0.84756
549.16591,0.84680
547.11679,0.84543
545.06766,0.84492
543.01853,0.84510
540.96941,0.84484
538.92028,0.84428
536.87115,0.84381
534.82203,0.84315
532.77290,0.84283
530.72377,0.84304
528.67465,0.84291
526.62552,0.84334
524.57639,0.84503
522.52727,0.84599
520.47814,0.84565
518.42901,0.84545
516.37989,0.84580
514.33076,0.84562
512.28163,0.84520
510.23251,0.84546
508.18338,0.84554
506.13425,0.84437
504.08513,0.84315
502.03600,0.84311
499.98687,0.84370
497.93775,0.84398
495.88862,0.84370
493.83950,0.84417
491.79037,0.84544
489.74124,0.84521
487.69212,0.84381
485.64299,0.84389
483.59386,0.84557
481.54474,0.84644
479.49561,0.84625
477.44648,0.84661
475.39736,0.84707
473.34823,0.84612
471.29910,0.84454
469.24998,0.84461
467.20085,0.84558
465.15172,0.84524
463.10260,0.84478
461.05347,0.84635
459.00434,0.84938
456.95522,0.85011
454.90609,0.84775
452.85696,0.84689
450.80784,0.84743
448.75871,0.84703
446.70958,0.84720
444.66046,0.84927
442.61133,0.85122
440.56221,0.85096
438.51308,0.84957
436.46395,0.84896
434.41483,0.84887
432.36570,0.84626
430.31657,0.84223
428.26745,0.84165
426.21832,0.84383
424.16919,0.84583
422.12007,0.84659
420.07094,0.84628
418.02181,0.84783
415.97269,0.85002
413.92356,0.84975
411.87443,0.84769
409.82531,0.84679
407.77618,0.84926
405.72705,0.85146
403.67793,0.85021
401.62880,0.84780
399.57967,0.84423
