##TITLE=Spectrum
##JCAMP-DX=5.00 $$ chemotion-converter-app (1.1.0)
##DATA TYPE=SIZE EXCLUSION CHROMATOGRAPHY
##DATA CLASS=XYPOINTS
##ORIGIN=
##OWNER=
##XUNITS=G/MOL
##YUNITS=ARBITRARY UNITS
##NO_DEC=1
##SOFTWARE=WINGPC
##VERSION=8#1
##FIRSTX=3.28506E+3
##LASTX=7.86378E+5
##MINX=3285.06
##MAXX=786378.0
##MINY=0.00247197
##MAXY=1.08547
##NPOINTS=636
##FIRSTY=6.72497E-2
##XUNITS=G/MOL
##YUNITS=ARBITRARY UNITS
##XYPOINTS=(XY..XY)
3.28506E+3, 6.72497E-2
3.31352E+3, 6.73498E-2
3.34223E+3, 6.74892E-2
3.37119E+3, 6.76266E-2
3.40039E+3, 6.78051E-2
3.42986E+3, 6.80263E-2
3.45957E+3, 6.81691E-2
3.48955E+3, 6.85156E-2
3.51978E+3, 6.87312E-2
3.55028E+3, 6.90244E-2
3.58104E+3, 6.94063E-2
3.61206E+3, 6.97896E-2
3.64336E+3, 7.01925E-2
3.67493E+3, 7.09511E-2
3.70677E+3, 7.13104E-2
3.73888E+3, 7.17596E-2
3.77128E+3, 7.24066E-2
3.80395E+3, 7.29703E-2
3.83691E+3, 7.35424E-2
3.87015E+3, 7.42002E-2
3.90369E+3, 7.48334E-2
3.93751E+3, 7.56219E-2
3.97162E+3, 7.64417E-2
4.00603E+3, 7.69573E-2
4.04074E+3, 7.76811E-2
4.07575E+3, 7.83701E-2
4.11107E+3, 7.89561E-2
4.14668E+3, 7.96372E-2
4.18261E+3, 8.03508E-2
4.21885E+3, 8.09104E-2
4.25540E+3, 8.19134E-2
4.29227E+3, 8.26221E-2
4.32946E+3, 8.32693E-2
4.36697E+3, 8.40602E-2
4.40481E+3, 8.48472E-2
4.44297E+3, 8.54890E-2
4.48147E+3, 8.65802E-2
4.52030E+3, 8.71338E-2
4.55946E+3, 8.81118E-2
4.59897E+3, 8.90580E-2
4.63881E+3, 8.99081E-2
4.67900E+3, 9.08577E-2
4.71954E+3, 9.20883E-2
4.76043E+3, 9.26119E-2
4.80168E+3, 9.37007E-2
4.84328E+3, 9.46337E-2
4.88525E+3, 9.56930E-2
4.92757E+3, 9.68050E-2
4.97027E+3, 9.76823E-2
5.01333E+3, 9.86623E-2
5.05676E+3, 9.99379E-2
5.10058E+3, 1.01388E-1
5.14477E+3, 1.02293E-1
5.18934E+3, 1.02971E-1
5.23431E+3, 1.03827E-1
5.27966E+3, 1.04911E-1
5.32540E+3, 1.06042E-1
5.37154E+3, 1.07011E-1
5.41808E+3, 1.08436E-1
5.46502E+3, 1.09398E-1
5.51237E+3, 1.10451E-1
5.56013E+3, 1.11748E-1
5.60831E+3, 1.12697E-1
5.65690E+3, 1.14037E-1
5.70591E+3, 1.15789E-1
5.75535E+3, 1.16609E-1
5.80521E+3, 1.17833E-1
5.85551E+3, 1.19121E-1
5.90625E+3, 1.20370E-1
5.95742E+3, 1.21867E-1
6.00903E+3, 1.23087E-1
6.06110E+3, 1.24407E-1
6.11361E+3, 1.26163E-1
6.16658E+3, 1.27321E-1
6.22001E+3, 1.28830E-1
6.27390E+3, 1.30534E-1
6.32826E+3, 1.31987E-1
6.38309E+3, 1.33559E-1
6.43839E+3, 1.35178E-1
6.49418E+3, 1.36477E-1
6.55044E+3, 1.38193E-1
6.60720E+3, 1.39587E-1
6.66444E+3, 1.41291E-1
6.72218E+3, 1.43176E-1
6.78043E+3, 1.44671E-1
6.83917E+3, 1.46088E-1
6.89843E+3, 1.48012E-1
6.95820E+3, 1.49212E-1
7.01849E+3, 1.51132E-1
7.07929E+3, 1.52777E-1
7.14063E+3, 1.54599E-1
7.20250E+3, 1.56697E-1
7.26490E+3, 1.58580E-1
7.32785E+3, 1.60105E-1
7.39134E+3, 1.62476E-1
7.45538E+3, 1.64518E-1
7.51997E+3, 1.66393E-1
7.58513E+3, 1.67660E-1
7.65084E+3, 1.69448E-1
7.71713E+3, 1.71581E-1
7.78399E+3, 1.73473E-1
7.85144E+3, 1.75418E-1
7.91946E+3, 1.78197E-1
7.98808E+3, 1.79446E-1
8.05729E+3, 1.82428E-1
8.12710E+3, 1.84300E-1
8.19751E+3, 1.86516E-1
8.26854E+3, 1.88986E-1
8.34018E+3, 1.91081E-1
8.41244E+3, 1.93143E-1
8.48533E+3, 1.95879E-1
8.55884E+3, 1.98461E-1
8.63300E+3, 2.00747E-1
8.70780E+3, 2.02833E-1
8.78324E+3, 2.05193E-1
8.85934E+3, 2.08133E-1
8.93610E+3, 2.10430E-1
9.01352E+3, 2.13161E-1
9.09162E+3, 2.15963E-1
9.17039E+3, 2.18126E-1
9.24984E+3, 2.20838E-1
9.32999E+3, 2.23407E-1
9.41082E+3, 2.25724E-1
9.49236E+3, 2.28773E-1
9.57460E+3, 2.31117E-1
9.65756E+3, 2.34500E-1
9.74124E+3, 2.37555E-1
9.82563E+3, 2.40164E-1
9.91077E+3, 2.43003E-1
9.99663E+3, 2.45866E-1
1.00832E+4, 2.48364E-1
1.01706E+4, 2.51776E-1
1.02587E+4, 2.54352E-1
1.03476E+4, 2.58042E-1
1.04373E+4, 2.61508E-1
1.05277E+4, 2.64007E-1
1.06189E+4, 2.67517E-1
1.07109E+4, 2.70308E-1
1.08037E+4, 2.73458E-1
1.08973E+4, 2.77009E-1
1.09917E+4, 2.80115E-1
1.10870E+4, 2.83546E-1
1.11830E+4, 2.86854E-1
1.12799E+4, 2.89895E-1
1.13777E+4, 2.94576E-1
1.14762E+4, 2.96745E-1
1.15757E+4, 3.01161E-1
1.16760E+4, 3.04288E-1
1.17771E+4, 3.07898E-1
1.18792E+4, 3.12022E-1
1.19821E+4, 3.15493E-1
1.20859E+4, 3.19448E-1
1.21906E+4, 3.23748E-1
1.22962E+4, 3.26673E-1
1.24028E+4, 3.31080E-1
1.25102E+4, 3.34476E-1
1.26186E+4, 3.38378E-1
1.27280E+4, 3.44443E-1
1.28382E+4, 3.46677E-1
1.29495E+4, 3.51670E-1
1.30617E+4, 3.55318E-1
1.31748E+4, 3.59293E-1
1.32890E+4, 3.63641E-1
1.34041E+4, 3.67572E-1
1.35202E+4, 3.71807E-1
1.36374E+4, 3.76602E-1
1.37555E+4, 3.81299E-1
1.38747E+4, 3.86175E-1
1.39949E+4, 3.90413E-1
1.41162E+4, 3.94578E-1
1.42385E+4, 3.99696E-1
1.43619E+4, 4.03024E-1
1.44863E+4, 4.08489E-1
1.46118E+4, 4.12489E-1
1.47384E+4, 4.17662E-1
1.48661E+4, 4.22121E-1
1.49949E+4, 4.26480E-1
1.51248E+4, 4.31802E-1
1.52559E+4, 4.36065E-1
1.53881E+4, 4.40583E-1
1.55214E+4, 4.45469E-1
1.56559E+4, 4.49772E-1
1.57915E+4, 4.55505E-1
1.59283E+4, 4.60444E-1
1.60663E+4, 4.65021E-1
1.62055E+4, 4.70539E-1
1.63459E+4, 4.74789E-1
1.64876E+4, 4.81677E-1
1.66304E+4, 4.85522E-1
1.67745E+4, 4.91260E-1
1.69198E+4, 4.97287E-1
1.70664E+4, 5.01647E-1
1.72143E+4, 5.08639E-1
1.73634E+4, 5.14125E-1
1.75139E+4, 5.19183E-1
1.76656E+4, 5.24074E-1
1.78187E+4, 5.29180E-1
1.79731E+4, 5.35308E-1
1.81288E+4, 5.40661E-1
1.82859E+4, 5.45814E-1
1.84443E+4, 5.52107E-1
1.86041E+4, 5.57419E-1
1.87653E+4, 5.63678E-1
1.89279E+4, 5.69900E-1
1.90919E+4, 5.74033E-1
1.92573E+4, 5.80137E-1
1.94241E+4, 5.85108E-1
1.95924E+4, 5.92586E-1
1.97622E+4, 5.97626E-1
1.99334E+4, 6.03143E-1
2.01061E+4, 6.09236E-1
2.02803E+4, 6.14058E-1
2.04560E+4, 6.20428E-1
2.06333E+4, 6.26582E-1
2.08120E+4, 6.32653E-1
2.09924E+4, 6.38688E-1
2.11742E+4, 6.43758E-1
2.13577E+4, 6.49987E-1
2.15427E+4, 6.55027E-1
2.17294E+4, 6.60999E-1
2.19177E+4, 6.66971E-1
2.21076E+4, 6.72869E-1
2.22991E+4, 6.79687E-1
2.24923E+4, 6.85269E-1
2.26872E+4, 6.90433E-1
2.28837E+4, 6.96243E-1
2.30820E+4, 7.02241E-1
2.32820E+4, 7.08727E-1
2.34837E+4, 7.13904E-1
2.36872E+4, 7.20600E-1
2.38924E+4, 7.26635E-1
2.40994E+4, 7.32160E-1
2.43082E+4, 7.39448E-1
2.45188E+4, 7.43784E-1
2.47313E+4, 7.50506E-1
2.49455E+4, 7.55598E-1
2.51617E+4, 7.61524E-1
2.53797E+4, 7.68246E-1
2.55996E+4, 7.72440E-1
2.58214E+4, 7.79592E-1
2.60451E+4, 7.83807E-1
2.62708E+4, 7.90925E-1
2.64984E+4, 7.96644E-1
2.67280E+4, 8.01585E-1
2.69595E+4, 8.07896E-1
2.71931E+4, 8.12400E-1
2.74287E+4, 8.19734E-1
2.76664E+4, 8.23985E-1
2.79061E+4, 8.30037E-1
2.81479E+4, 8.36199E-1
2.83917E+4, 8.40629E-1
2.86377E+4, 8.46942E-1
2.88858E+4, 8.51616E-1
2.91361E+4, 8.57888E-1
2.93886E+4, 8.63619E-1
2.96432E+4, 8.67934E-1
2.99000E+4, 8.73716E-1
3.01591E+4, 8.77706E-1
3.04204E+4, 8.83425E-1
3.06840E+4, 8.88162E-1
3.09498E+4, 8.93246E-1
3.12180E+4, 8.98043E-1
3.14884E+4, 9.02441E-1
3.17613E+4, 9.07506E-1
3.20364E+4, 9.13482E-1
3.23140E+4, 9.18160E-1
3.25940E+4, 9.22131E-1
3.28764E+4, 9.26649E-1
3.31612E+4, 9.31498E-1
3.34485E+4, 9.35654E-1
3.37383E+4, 9.41076E-1
3.40307E+4, 9.45418E-1
3.43255E+4, 9.50098E-1
3.46229E+4, 9.53948E-1
3.49229E+4, 9.58419E-1
3.52255E+4, 9.64193E-1
3.55307E+4, 9.67487E-1
3.58385E+4, 9.72600E-1
3.61490E+4, 9.76161E-1
3.64622E+4, 9.80429E-1
3.67781E+4, 9.84946E-1
3.70968E+4, 9.88134E-1
3.74182E+4, 9.92519E-1
3.77424E+4, 9.95953E-1
3.80694E+4, 1.00030E+0
3.83993E+4, 1.00369E+0
3.87320E+4, 1.00700E+0
3.90675E+4, 1.01063E+0
3.94060E+4, 1.01347E+0
3.97474E+4, 1.01765E+0
4.00918E+4, 1.02002E+0
4.04392E+4, 1.02377E+0
4.07896E+4, 1.02724E+0
4.11430E+4, 1.02988E+0
4.14994E+4, 1.03340E+0
4.18590E+4, 1.03566E+0
4.22217E+4, 1.03914E+0
4.25875E+4, 1.04174E+0
4.29565E+4, 1.04460E+0
4.33286E+4, 1.04715E+0
4.37041E+4, 1.04937E+0
4.40827E+4, 1.05215E+0
4.44647E+4, 1.05535E+0
4.48499E+4, 1.05740E+0
4.52385E+4, 1.05914E+0
4.56304E+4, 1.06167E+0
4.60258E+4, 1.06420E+0
4.64246E+4, 1.06541E+0
4.68268E+4, 1.06754E+0
4.72325E+4, 1.06913E+0
4.76417E+4, 1.07107E+0
4.80545E+4, 1.07248E+0
4.84709E+4, 1.07395E+0
4.88908E+4, 1.07532E+0
4.93144E+4, 1.07662E+0
4.97417E+4, 1.07801E+0
5.01727E+4, 1.07910E+0
5.06074E+4, 1.08041E+0
5.10458E+4, 1.08142E+0
5.14881E+4, 1.08240E+0
5.19342E+4, 1.08329E+0
5.23842E+4, 1.08390E+0
5.28381E+4, 1.08437E+0
5.32959E+4, 1.08474E+0
5.37576E+4, 1.08504E+0
5.42234E+4, 1.08528E+0
5.46932E+4, 1.08540E+0
5.51671E+4, 1.08547E+0
5.56450E+4, 1.08543E+0
5.61271E+4, 1.08530E+0
5.66134E+4, 1.08513E+0
5.71040E+4, 1.08483E+0
5.75987E+4, 1.08457E+0
5.80978E+4, 1.08393E+0
5.86011E+4, 1.08345E+0
5.91089E+4, 1.08283E+0
5.96210E+4, 1.08212E+0
6.01376E+4, 1.08154E+0
6.06586E+4, 1.08038E+0
6.11842E+4, 1.07830E+0
6.17143E+4, 1.07804E+0
6.22490E+4, 1.07708E+0
6.27883E+4, 1.07536E+0
6.33323E+4, 1.07346E+0
6.38810E+4, 1.07194E+0
6.44345E+4, 1.06974E+0
6.49928E+4, 1.06805E+0
6.55559E+4, 1.06564E+0
6.61239E+4, 1.06357E+0
6.66968E+4, 1.06094E+0
6.72747E+4, 1.05863E+0
6.78575E+4, 1.05608E+0
6.84455E+4, 1.05361E+0
6.90385E+4, 1.05075E+0
6.96367E+4, 1.04739E+0
7.02400E+4, 1.04473E+0
7.08486E+4, 1.04115E+0
7.14624E+4, 1.03636E+0
7.20816E+4, 1.03343E+0
7.27061E+4, 1.03079E+0
7.33360E+4, 1.02685E+0
7.39714E+4, 1.02303E+0
7.46123E+4, 1.01939E+0
7.52588E+4, 1.01414E+0
7.59108E+4, 1.01116E+0
7.65686E+4, 1.00568E+0
7.72320E+4, 1.00140E+0
7.79011E+4, 9.96873E-1
7.85761E+4, 9.91958E-1
7.92569E+4, 9.86747E-1
7.99435E+4, 9.80765E-1
8.06362E+4, 9.75945E-1
8.13348E+4, 9.70429E-1
8.20395E+4, 9.65557E-1
8.27503E+4, 9.59623E-1
8.34673E+4, 9.51931E-1
8.41905E+4, 9.46809E-1
8.49199E+4, 9.42763E-1
8.56557E+4, 9.36737E-1
8.63978E+4, 9.30957E-1
8.71464E+4, 9.25481E-1
8.79014E+4, 9.17560E-1
8.86630E+4, 9.13026E-1
8.94312E+4, 9.04682E-1
9.02061E+4, 8.97287E-1
9.09876E+4, 8.91521E-1
9.17760E+4, 8.84023E-1
9.25711E+4, 8.77739E-1
9.33732E+4, 8.70346E-1
9.41822E+4, 8.63446E-1
9.49982E+4, 8.55906E-1
9.58213E+4, 8.48998E-1
9.66515E+4, 8.40434E-1
9.74889E+4, 8.33932E-1
9.83336E+4, 8.24669E-1
9.91855E+4, 8.18368E-1
1.00045E+5, 8.10421E-1
1.00912E+5, 8.00811E-1
1.01786E+5, 7.95422E-1
1.02668E+5, 7.85673E-1
1.03557E+5, 7.79619E-1
1.04455E+5, 7.69978E-1
1.05360E+5, 7.62717E-1
1.06273E+5, 7.53336E-1
1.07193E+5, 7.45278E-1
1.08122E+5, 7.37019E-1
1.09059E+5, 7.27870E-1
1.10004E+5, 7.19054E-1
1.10957E+5, 7.10538E-1
1.11918E+5, 7.02874E-1
1.12888E+5, 6.92689E-1
1.13866E+5, 6.80035E-1
1.14852E+5, 6.74632E-1
1.15848E+5, 6.67530E-1
1.16851E+5, 6.58731E-1
1.17864E+5, 6.49819E-1
1.18885E+5, 6.41742E-1
1.19915E+5, 6.32494E-1
1.20954E+5, 6.23621E-1
1.22002E+5, 6.13129E-1
1.23059E+5, 6.05058E-1
1.24125E+5, 5.95792E-1
1.25201E+5, 5.88092E-1
1.26285E+5, 5.77971E-1
1.27380E+5, 5.70821E-1
1.28483E+5, 5.60501E-1
1.29596E+5, 5.51667E-1
1.30719E+5, 5.43247E-1
1.31852E+5, 5.31993E-1
1.32994E+5, 5.24253E-1
1.34146E+5, 5.14698E-1
1.35309E+5, 5.07738E-1
1.36481E+5, 4.97685E-1
1.37664E+5, 4.89596E-1
1.38856E+5, 4.80887E-1
1.40059E+5, 4.72832E-1
1.41273E+5, 4.62952E-1
1.42497E+5, 4.55318E-1
1.43731E+5, 4.46795E-1
1.44977E+5, 4.37043E-1
1.46233E+5, 4.30814E-1
1.47500E+5, 4.19469E-1
1.48778E+5, 4.14488E-1
1.50067E+5, 4.04690E-1
1.51367E+5, 3.96846E-1
1.52679E+5, 3.88780E-1
1.54001E+5, 3.80957E-1
1.55336E+5, 3.72048E-1
1.56682E+5, 3.63391E-1
1.58039E+5, 3.55903E-1
1.59408E+5, 3.47486E-1
1.60790E+5, 3.41088E-1
1.62183E+5, 3.31993E-1
1.63588E+5, 3.25886E-1
1.65005E+5, 3.16617E-1
1.66435E+5, 3.10495E-1
1.67877E+5, 3.02566E-1
1.69331E+5, 2.95281E-1
1.70798E+5, 2.88644E-1
1.72278E+5, 2.81722E-1
1.73771E+5, 2.74787E-1
1.75276E+5, 2.66385E-1
1.76795E+5, 2.60712E-1
1.78327E+5, 2.52856E-1
1.79872E+5, 2.47631E-1
1.81430E+5, 2.39524E-1
1.83002E+5, 2.35684E-1
1.84588E+5, 2.28119E-1
1.86187E+5, 2.21966E-1
1.87800E+5, 2.15756E-1
1.89427E+5, 2.09267E-1
1.91069E+5, 2.03874E-1
1.92724E+5, 1.98041E-1
1.94394E+5, 1.92767E-1
1.96078E+5, 1.86481E-1
1.97777E+5, 1.82155E-1
1.99491E+5, 1.75634E-1
2.01219E+5, 1.71069E-1
2.02962E+5, 1.65012E-1
2.04721E+5, 1.60281E-1
2.06495E+5, 1.55115E-1
2.08284E+5, 1.49751E-1
2.10088E+5, 1.45519E-1
2.11909E+5, 1.40719E-1
2.13745E+5, 1.36389E-1
2.15597E+5, 1.31958E-1
2.17465E+5, 1.27916E-1
2.19349E+5, 1.23024E-1
2.21249E+5, 1.19589E-1
2.23166E+5, 1.14481E-1
2.25100E+5, 1.11174E-1
2.27050E+5, 1.07216E-1
2.29017E+5, 1.03513E-1
2.31001E+5, 9.99070E-2
2.33003E+5, 9.64415E-2
2.35022E+5, 9.33328E-2
2.37058E+5, 8.97724E-2
2.39112E+5, 8.68979E-2
2.41184E+5, 8.34677E-2
2.43273E+5, 8.08319E-2
2.45381E+5, 7.72109E-2
2.47507E+5, 7.45455E-2
2.49651E+5, 7.13009E-2
2.51814E+5, 6.88049E-2
2.53996E+5, 6.60119E-2
2.56197E+5, 6.26054E-2
2.58417E+5, 5.98991E-2
2.60656E+5, 5.81188E-2
2.62914E+5, 5.60366E-2
2.65192E+5, 5.34713E-2
2.67490E+5, 5.18129E-2
2.69807E+5, 4.95248E-2
2.72145E+5, 4.72963E-2
2.74503E+5, 4.51172E-2
2.76881E+5, 4.34830E-2
2.79280E+5, 4.12686E-2
2.81700E+5, 3.94692E-2
2.84140E+5, 3.82518E-2
2.86602E+5, 3.66982E-2
2.89085E+5, 3.53844E-2
2.91590E+5, 3.39406E-2
2.94117E+5, 3.25283E-2
2.96665E+5, 3.06727E-2
2.99235E+5, 2.93761E-2
3.01828E+5, 2.77513E-2
3.04443E+5, 2.67193E-2
3.07081E+5, 2.56397E-2
3.09741E+5, 2.46196E-2
3.12425E+5, 2.36522E-2
3.15132E+5, 2.25236E-2
3.17862E+5, 2.14705E-2
3.20616E+5, 2.04556E-2
3.23394E+5, 1.96006E-2
3.26196E+5, 1.86430E-2
3.29022E+5, 1.79626E-2
3.31873E+5, 1.71247E-2
3.34748E+5, 1.64813E-2
3.37649E+5, 1.57292E-2
3.40574E+5, 1.50287E-2
3.43525E+5, 1.43173E-2
3.46501E+5, 1.36686E-2
3.49503E+5, 1.31492E-2
3.52531E+5, 1.26314E-2
3.55586E+5, 1.20804E-2
3.58667E+5, 1.14157E-2
3.61774E+5, 1.08333E-2
3.64909E+5, 1.01562E-2
3.68070E+5, 9.69573E-3
3.71259E+5, 9.29943E-3
3.74476E+5, 9.04368E-3
3.77721E+5, 8.75768E-3
3.80993E+5, 8.42791E-3
3.84294E+5, 8.05917E-3
3.87624E+5, 7.63451E-3
3.90982E+5, 7.28185E-3
3.94370E+5, 7.01718E-3
3.97787E+5, 6.81624E-3
4.01233E+5, 6.63919E-3
4.04710E+5, 6.40006E-3
4.08216E+5, 6.07157E-3
4.11753E+5, 5.70940E-3
4.15320E+5, 5.34668E-3
4.18919E+5, 5.03206E-3
4.22548E+5, 4.77848E-3
4.26209E+5, 4.60521E-3
4.29902E+5, 4.54266E-3
4.33627E+5, 4.53352E-3
4.37384E+5, 4.45669E-3
4.41173E+5, 4.41450E-3
4.44996E+5, 4.31977E-3
4.48851E+5, 4.41506E-3
4.52740E+5, 4.37564E-3
4.56663E+5, 4.43518E-3
4.60620E+5, 4.37180E-3
4.64610E+5, 4.31691E-3
4.68636E+5, 4.37051E-3
4.72696E+5, 4.43276E-3
4.76792E+5, 4.38639E-3
4.80923E+5, 4.38323E-3
4.85090E+5, 4.38843E-3
4.89292E+5, 4.30561E-3
4.93532E+5, 4.28504E-3
4.97808E+5, 4.14070E-3
5.02121E+5, 4.04721E-3
5.06471E+5, 3.94339E-3
5.10860E+5, 3.91777E-3
5.15286E+5, 4.00595E-3
5.19750E+5, 4.05689E-3
5.24253E+5, 4.10351E-3
5.28796E+5, 4.03351E-3
5.33377E+5, 4.01266E-3
5.37999E+5, 3.96040E-3
5.42660E+5, 3.94063E-3
5.47362E+5, 3.83239E-3
5.52104E+5, 3.72114E-3
5.56888E+5, 3.56871E-3
5.61713E+5, 3.45901E-3
5.66579E+5, 3.44195E-3
5.71488E+5, 3.40890E-3
5.76440E+5, 3.43751E-3
5.81434E+5, 3.40996E-3
5.86472E+5, 3.34845E-3
5.91553E+5, 3.28360E-3
5.96678E+5, 3.25826E-3
6.01848E+5, 3.18119E-3
6.07063E+5, 3.14989E-3
6.12322E+5, 3.09600E-3
6.17628E+5, 3.10330E-3
6.22979E+5, 3.15588E-3
6.28376E+5, 3.11481E-3
6.33821E+5, 3.15770E-3
6.39312E+5, 3.14739E-3
6.44851E+5, 3.18145E-3
6.50438E+5, 3.13142E-3
6.56074E+5, 3.15813E-3
6.61758E+5, 3.09758E-3
6.67492E+5, 3.04091E-3
6.73275E+5, 2.97786E-3
6.79109E+5, 2.96976E-3
6.84992E+5, 2.89921E-3
6.90927E+5, 2.79811E-3
6.96914E+5, 2.76114E-3
7.02952E+5, 2.65534E-3
7.09042E+5, 2.72859E-3
7.15186E+5, 2.70045E-3
7.21382E+5, 2.71386E-3
7.27632E+5, 2.65183E-3
7.33937E+5, 2.63804E-3
7.40296E+5, 2.64125E-3
7.46710E+5, 2.61755E-3
7.53179E+5, 2.61463E-3
7.59705E+5, 2.56161E-3
7.66287E+5, 2.53137E-3
7.72926E+5, 2.47197E-3
7.79623E+5, 2.51528E-3
7.86378E+5, 2.51060E-3
##END=$$ End of the data block
