##TITLE=Spectrum
##JCAMP-DX=5.00 $$ chemotion-converter-app (1.6.2)
##DATA TYPE=THERMOGRAVIMETRIC ANALYSIS
##DATA CLASS=XYPOINTS
##ORIGIN=
##OWNER=
##XUNITS=DEGREES CELSIUS
##YUNITS=Weight %
##FIRSTX=29.69
##LASTX=29.58
##MINX=29.58
##MAXX=29.93
##MINY=99.99
##MAXY=100.0
##NPOINTS=1800
##FIRSTY=100.0
##XUNITS=DEGREES CELSIUS
##YUNITS=Weight %
##XYPOINTS=(XY..XY)
29.69, 100.0
29.69, 100.0
29.69, 100.0
29.69, 100.0
29.69, 100.0
29.69, 100.0
29.69, 100.0
29.69, 100.0
29.69, 100.0
29.69, 100.0
29.69, 100.0
29.69, 100.0
29.69, 100.0
29.69, 100.0
29.69, 100.0
29.7, 100.0
29.7, 100.0
29.7, 100.0
29.7, 100.0
29.7, 100.0
29.7, 100.0
29.7, 100.0
29.7, 100.0
29.7, 100.0
29.7, 100.0
29.7, 100.0
29.7, 100.0
29.7, 100.0
29.7, 100.0
29.71, 100.0
29.71, 100.0
29.71, 100.0
29.71, 100.0
29.71, 100.0
29.71, 100.0
29.71, 100.0
29.71, 100.0
29.71, 100.0
29.71, 100.0
29.71, 100.0
29.71, 100.0
29.71, 100.0
29.71, 100.0
29.71, 100.0
29.72, 100.0
29.72, 100.0
29.72, 100.0
29.72, 100.0
29.72, 100.0
29.72, 100.0
29.72, 100.0
29.72, 100.0
29.72, 100.0
29.72, 100.0
29.72, 100.0
29.72, 100.0
29.72, 100.0
29.72, 100.0
29.72, 100.0
29.73, 100.0
29.73, 100.0
29.73, 100.0
29.73, 100.0
29.73, 100.0
29.73, 100.0
29.73, 100.0
29.73, 100.0
29.73, 100.0
29.73, 100.0
29.73, 100.0
29.73, 100.0
29.73, 100.0
29.73, 100.0
29.73, 100.0
29.73, 100.0
29.74, 100.0
29.74, 100.0
29.74, 100.0
29.74, 100.0
29.74, 100.0
29.74, 100.0
29.74, 100.0
29.74, 100.0
29.74, 100.0
29.74, 100.0
29.74, 100.0
29.74, 100.0
29.74, 100.0
29.74, 100.0
29.74, 100.0
29.74, 100.0
29.75, 100.0
29.75, 100.0
29.75, 100.0
29.75, 100.0
29.75, 100.0
29.75, 100.0
29.75, 100.0
29.75, 100.0
29.75, 100.0
29.75, 100.0
29.75, 100.0
29.75, 100.0
29.75, 100.0
29.75, 100.0
29.75, 100.0
29.75, 100.0
29.76, 100.0
29.76, 100.0
29.76, 100.0
29.76, 100.0
29.76, 100.0
29.76, 100.0
29.76, 100.0
29.76, 100.0
29.76, 100.0
29.76, 100.0
29.76, 100.0
29.76, 100.0
29.76, 100.0
29.76, 100.0
29.76, 100.0
29.76, 100.0
29.76, 100.0
29.77, 100.0
29.77, 100.0
29.77, 100.0
29.77, 100.0
29.77, 100.0
29.77, 100.0
29.77, 100.0
29.77, 100.0
29.77, 100.0
29.77, 100.0
29.77, 100.0
29.77, 100.0
29.77, 100.0
29.77, 100.0
29.77, 100.0
29.77, 100.0
29.77, 100.0
29.78, 100.0
29.78, 100.0
29.78, 100.0
29.78, 100.0
29.78, 100.0
29.78, 100.0
29.78, 100.0
29.78, 100.0
29.78, 100.0
29.78, 100.0
29.78, 100.0
29.78, 100.0
29.78, 100.0
29.78, 100.0
29.78, 100.0
29.78, 100.0
29.78, 100.0
29.78, 100.0
29.79, 100.0
29.79, 100.0
29.79, 100.0
29.79, 100.0
29.79, 100.0
29.79, 100.0
29.79, 100.0
29.79, 100.0
29.79, 100.0
29.79, 100.0
29.79, 100.0
29.79, 100.0
29.79, 100.0
29.79, 100.0
29.79, 100.0
29.79, 100.0
29.79, 100.0
29.79, 100.0
29.8, 100.0
29.8, 100.0
29.8, 100.0
29.8, 100.0
29.8, 100.0
29.8, 100.0
29.8, 100.0
29.8, 100.0
29.8, 100.0
29.8, 100.0
29.8, 100.0
29.8, 100.0
29.8, 100.0
29.8, 100.0
29.8, 100.0
29.8, 100.0
29.8, 100.0
29.8, 100.0
29.8, 100.0
29.8, 100.0
29.81, 100.0
29.81, 100.0
29.81, 100.0
29.81, 100.0
29.81, 100.0
29.81, 100.0
29.81, 100.0
29.81, 100.0
29.81, 100.0
29.81, 100.0
29.81, 100.0
29.81, 100.0
29.81, 100.0
29.81, 100.0
29.81, 100.0
29.81, 100.0
29.81, 100.0
29.81, 100.0
29.81, 100.0
29.81, 100.0
29.82, 100.0
29.82, 100.0
29.82, 100.0
29.82, 100.0
29.82, 100.0
29.82, 100.0
29.82, 100.0
29.82, 100.0
29.82, 100.0
29.82, 100.0
29.82, 100.0
29.82, 100.0
29.82, 100.0
29.82, 100.0
29.82, 100.0
29.82, 100.0
29.82, 100.0
29.82, 100.0
29.82, 100.0
29.82, 100.0
29.82, 100.0
29.83, 100.0
29.83, 100.0
29.83, 100.0
29.83, 100.0
29.83, 100.0
29.83, 100.0
29.83, 100.0
29.83, 100.0
29.83, 100.0
29.83, 100.0
29.83, 100.0
29.83, 100.0
29.83, 100.0
29.83, 100.0
29.83, 100.0
29.83, 100.0
29.83, 100.0
29.83, 100.0
29.83, 100.0
29.83, 100.0
29.83, 100.0
29.83, 100.0
29.83, 100.0
29.84, 100.0
29.84, 100.0
29.84, 100.0
29.84, 100.0
29.84, 100.0
29.84, 100.0
29.84, 100.0
29.84, 100.0
29.84, 100.0
29.84, 100.0
29.84, 100.0
29.84, 100.0
29.84, 100.0
29.84, 100.0
29.84, 100.0
29.84, 100.0
29.84, 100.0
29.84, 100.0
29.84, 100.0
29.84, 100.0
29.84, 100.0
29.84, 100.0
29.84, 100.0
29.85, 100.0
29.85, 100.0
29.85, 100.0
29.85, 100.0
29.85, 100.0
29.85, 100.0
29.85, 100.0
29.85, 100.0
29.85, 100.0
29.85, 100.0
29.85, 100.0
29.85, 100.0
29.85, 100.0
29.85, 100.0
29.85, 100.0
29.85, 100.0
29.85, 100.0
29.85, 100.0
29.85, 100.0
29.85, 100.0
29.85, 100.0
29.85, 100.0
29.85, 100.0
29.85, 100.0
29.85, 100.0
29.86, 100.0
29.86, 100.0
29.86, 100.0
29.86, 100.0
29.86, 100.0
29.86, 100.0
29.86, 100.0
29.86, 100.0
29.86, 100.0
29.86, 100.0
29.86, 100.0
29.86, 100.0
29.86, 100.0
29.86, 100.0
29.86, 100.0
29.86, 100.0
29.86, 100.0
29.86, 100.0
29.86, 100.0
29.86, 100.0
29.86, 100.0
29.86, 100.0
29.86, 100.0
29.86, 100.0
29.86, 100.0
29.86, 100.0
29.86, 100.0
29.87, 100.0
29.87, 100.0
29.87, 100.0
29.87, 100.0
29.87, 100.0
29.87, 100.0
29.87, 100.0
29.87, 100.0
29.87, 100.0
29.87, 100.0
29.87, 100.0
29.87, 100.0
29.87, 100.0
29.87, 100.0
29.87, 100.0
29.87, 100.0
29.87, 100.0
29.87, 100.0
29.87, 100.0
29.87, 100.0
29.87, 100.0
29.87, 100.0
29.87, 100.0
29.87, 100.0
29.87, 100.0
29.87, 100.0
29.87, 100.0
29.87, 100.0
29.87, 100.0
29.87, 100.0
29.87, 100.0
29.88, 100.0
29.88, 100.0
29.88, 100.0
29.88, 100.0
29.88, 100.0
29.88, 100.0
29.88, 100.0
29.88, 100.0
29.88, 100.0
29.88, 100.0
29.88, 100.0
29.88, 100.0
29.88, 100.0
29.88, 100.0
29.88, 100.0
29.88, 100.0
29.88, 100.0
29.88, 100.0
29.88, 100.0
29.88, 100.0
29.88, 100.0
29.88, 100.0
29.88, 100.0
29.88, 100.0
29.88, 100.0
29.88, 100.0
29.88, 100.0
29.88, 100.0
29.88, 100.0
29.88, 100.0
29.88, 100.0
29.88, 100.0
29.88, 100.0
29.88, 100.0
29.88, 100.0
29.88, 100.0
29.89, 100.0
29.89, 100.0
29.89, 100.0
29.89, 100.0
29.89, 100.0
29.89, 100.0
29.89, 100.0
29.89, 100.0
29.89, 100.0
29.89, 100.0
29.89, 100.0
29.89, 100.0
29.89, 100.0
29.89, 100.0
29.89, 100.0
29.89, 100.0
29.89, 100.0
29.89, 100.0
29.89, 100.0
29.89, 100.0
29.89, 100.0
29.89, 100.0
29.89, 100.0
29.89, 100.0
29.89, 100.0
29.89, 100.0
29.89, 100.0
29.89, 100.0
29.89, 100.0
29.89, 100.0
29.89, 100.0
29.89, 100.0
29.89, 100.0
29.89, 100.0
29.89, 100.0
29.89, 100.0
29.89, 100.0
29.89, 100.0
29.89, 100.0
29.89, 100.0
29.89, 100.0
29.89, 100.0
29.9, 100.0
29.9, 100.0
29.9, 100.0
29.9, 100.0
29.9, 100.0
29.9, 100.0
29.9, 100.0
29.9, 100.0
29.9, 100.0
29.9, 100.0
29.9, 100.0
29.9, 100.0
29.9, 100.0
29.9, 100.0
29.9, 100.0
29.9, 100.0
29.9, 100.0
29.9, 100.0
29.9, 100.0
29.9, 100.0
29.9, 100.0
29.9, 100.0
29.9, 100.0
29.9, 100.0
29.9, 100.0
29.9, 100.0
29.9, 100.0
29.9, 100.0
29.9, 100.0
29.9, 100.0
29.9, 100.0
29.9, 100.0
29.9, 100.0
29.9, 100.0
29.9, 100.0
29.9, 100.0
29.9, 100.0
29.9, 100.0
29.9, 100.0
29.9, 100.0
29.9, 100.0
29.9, 100.0
29.9, 100.0
29.9, 100.0
29.9, 100.0
29.91, 100.0
29.91, 100.0
29.91, 100.0
29.91, 100.0
29.91, 100.0
29.91, 100.0
29.91, 100.0
29.91, 100.0
29.91, 100.0
29.91, 100.0
29.91, 100.0
29.91, 100.0
29.91, 100.0
29.91, 100.0
29.91, 100.0
29.91, 100.0
29.91, 100.0
29.91, 100.0
29.91, 100.0
29.91, 100.0
29.91, 100.0
29.91, 100.0
29.91, 100.0
29.91, 100.0
29.91, 100.0
29.91, 100.0
29.91, 100.0
29.91, 100.0
29.91, 100.0
29.91, 100.0
29.91, 100.0
29.91, 100.0
29.91, 100.0
29.91, 100.0
29.91, 100.0
29.91, 100.0
29.91, 100.0
29.91, 100.0
29.91, 100.0
29.91, 100.0
29.91, 100.0
29.91, 100.0
29.91, 100.0
29.91, 100.0
29.91, 100.0
29.91, 100.0
29.91, 100.0
29.91, 100.0
29.91, 100.0
29.91, 100.0
29.91, 100.0
29.91, 100.0
29.91, 100.0
29.91, 100.0
29.92, 100.0
29.92, 100.0
29.92, 100.0
29.92, 100.0
29.92, 100.0
29.92, 100.0
29.92, 100.0
29.92, 100.0
29.92, 100.0
29.92, 100.0
29.92, 100.0
29.92, 100.0
29.92, 100.0
29.92, 100.0
29.92, 100.0
29.92, 100.0
29.92, 100.0
29.92, 100.0
29.92, 100.0
29.92, 100.0
29.92, 100.0
29.92, 100.0
29.92, 100.0
29.92, 100.0
29.92, 100.0
29.92, 100.0
29.92, 100.0
29.92, 100.0
29.92, 100.0
29.92, 100.0
29.92, 100.0
29.92, 100.0
29.92, 100.0
29.92, 100.0
29.92, 100.0
29.92, 100.0
29.92, 100.0
29.92, 100.0
29.92, 100.0
29.92, 100.0
29.92, 100.0
29.92, 100.0
29.92, 100.0
29.92, 100.0
29.92, 100.0
29.92, 100.0
29.92, 100.0
29.92, 100.0
29.92, 100.0
29.92, 100.0
29.92, 100.0
29.92, 100.0
29.92, 100.0
29.92, 100.0
29.92, 100.0
29.92, 100.0
29.92, 100.0
29.92, 100.0
29.92, 100.0
29.92, 100.0
29.92, 100.0
29.92, 100.0
29.92, 100.0
29.92, 100.0
29.92, 100.0
29.92, 100.0
29.92, 100.0
29.92, 100.0
29.92, 100.0
29.92, 100.0
29.92, 100.0
29.92, 100.0
29.92, 100.0
29.92, 100.0
29.92, 100.0
29.92, 100.0
29.92, 100.0
29.92, 100.0
29.92, 100.0
29.92, 100.0
29.93, 100.0
29.93, 100.0
29.93, 100.0
29.93, 100.0
29.93, 100.0
29.93, 100.0
29.93, 100.0
29.93, 100.0
29.93, 100.0
29.93, 100.0
29.93, 100.0
29.93, 100.0
29.93, 100.0
29.93, 100.0
29.93, 100.0
29.93, 100.0
29.93, 100.0
29.93, 100.0
29.93, 100.0
29.93, 100.0
29.93, 100.0
29.93, 100.0
29.93, 100.0
29.93, 100.0
29.93, 100.0
29.93, 100.0
29.93, 100.0
29.93, 100.0
29.93, 100.0
29.93, 100.0
29.93, 100.0
29.93, 100.0
29.93, 100.0
29.93, 100.0
29.93, 100.0
29.93, 100.0
29.93, 100.0
29.93, 100.0
29.93, 100.0
29.93, 100.0
29.93, 100.0
29.93, 100.0
29.93, 100.0
29.93, 100.0
29.93, 100.0
29.93, 100.0
29.93, 100.0
29.93, 100.0
29.93, 100.0
29.93, 100.0
29.93, 100.0
29.93, 100.0
29.93, 100.0
29.93, 100.0
29.93, 100.0
29.93, 100.0
29.93, 100.0
29.93, 100.0
29.93, 100.0
29.93, 100.0
29.93, 100.0
29.93, 100.0
29.93, 100.0
29.93, 100.0
29.93, 100.0
29.93, 100.0
29.93, 100.0
29.93, 100.0
29.93, 100.0
29.93, 100.0
29.93, 100.0
29.93, 100.0
29.93, 100.0
29.93, 100.0
29.93, 100.0
29.93, 100.0
29.93, 100.0
29.93, 100.0
29.93, 100.0
29.93, 100.0
29.93, 100.0
29.93, 100.0
29.93, 100.0
29.93, 100.0
29.93, 100.0
29.93, 100.0
29.93, 100.0
29.93, 100.0
29.93, 100.0
29.93, 100.0
29.93, 100.0
29.93, 100.0
29.93, 100.0
29.93, 100.0
29.93, 100.0
29.93, 100.0
29.93, 100.0
29.93, 100.0
29.93, 100.0
29.93, 100.0
29.93, 100.0
29.93, 100.0
29.93, 100.0
29.93, 100.0
29.93, 100.0
29.93, 100.0
29.93, 100.0
29.93, 100.0
29.93, 100.0
29.93, 100.0
29.93, 100.0
29.93, 100.0
29.93, 100.0
29.93, 100.0
29.93, 100.0
29.93, 100.0
29.93, 100.0
29.93, 100.0
29.93, 100.0
29.93, 100.0
29.93, 100.0
29.93, 100.0
29.93, 100.0
29.93, 100.0
29.93, 100.0
29.93, 100.0
29.93, 100.0
29.93, 100.0
29.93, 100.0
29.93, 100.0
29.93, 100.0
29.93, 100.0
29.93, 100.0
29.93, 100.0
29.93, 100.0
29.93, 100.0
29.93, 100.0
29.93, 100.0
29.93, 100.0
29.93, 100.0
29.93, 100.0
29.93, 100.0
29.93, 100.0
29.93, 100.0
29.93, 100.0
29.93, 100.0
29.93, 100.0
29.93, 100.0
29.93, 100.0
29.93, 100.0
29.93, 100.0
29.93, 100.0
29.93, 100.0
29.93, 100.0
29.93, 100.0
29.93, 100.0
29.93, 100.0
29.93, 100.0
29.93, 100.0
29.93, 100.0
29.93, 100.0
29.93, 100.0
29.93, 100.0
29.93, 100.0
29.93, 100.0
29.93, 100.0
29.93, 100.0
29.93, 100.0
29.93, 100.0
29.93, 100.0
29.93, 100.0
29.93, 100.0
29.93, 100.0
29.93, 100.0
29.93, 100.0
29.93, 100.0
29.93, 100.0
29.93, 100.0
29.93, 100.0
29.93, 100.0
29.93, 100.0
29.93, 100.0
29.93, 100.0
29.93, 100.0
29.93, 100.0
29.93, 100.0
29.93, 100.0
29.93, 100.0
29.92, 100.0
29.92, 100.0
29.92, 100.0
29.92, 100.0
29.92, 100.0
29.92, 100.0
29.92, 100.0
29.92, 100.0
29.92, 100.0
29.92, 100.0
29.92, 100.0
29.92, 100.0
29.92, 100.0
29.92, 100.0
29.92, 100.0
29.92, 100.0
29.92, 100.0
29.92, 100.0
29.92, 100.0
29.92, 100.0
29.92, 100.0
29.92, 100.0
29.92, 100.0
29.92, 100.0
29.92, 100.0
29.92, 100.0
29.92, 100.0
29.92, 100.0
29.92, 100.0
29.92, 100.0
29.92, 100.0
29.92, 100.0
29.92, 100.0
29.92, 100.0
29.92, 100.0
29.92, 100.0
29.92, 100.0
29.92, 100.0
29.92, 100.0
29.92, 100.0
29.92, 100.0
29.92, 100.0
29.92, 100.0
29.92, 100.0
29.92, 100.0
29.92, 100.0
29.92, 100.0
29.92, 100.0
29.92, 100.0
29.92, 100.0
29.92, 100.0
29.92, 100.0
29.92, 100.0
29.92, 100.0
29.92, 100.0
29.92, 100.0
29.92, 100.0
29.92, 100.0
29.92, 100.0
29.92, 100.0
29.92, 100.0
29.92, 100.0
29.92, 100.0
29.92, 100.0
29.92, 100.0
29.92, 100.0
29.92, 100.0
29.92, 100.0
29.92, 100.0
29.92, 100.0
29.92, 100.0
29.92, 100.0
29.92, 100.0
29.91, 100.0
29.91, 100.0
29.91, 100.0
29.91, 100.0
29.91, 100.0
29.91, 100.0
29.91, 100.0
29.91, 100.0
29.91, 100.0
29.91, 100.0
29.91, 100.0
29.91, 100.0
29.91, 100.0
29.91, 100.0
29.91, 100.0
29.91, 100.0
29.91, 100.0
29.91, 100.0
29.91, 100.0
29.91, 100.0
29.91, 100.0
29.91, 100.0
29.91, 100.0
29.91, 100.0
29.91, 100.0
29.91, 100.0
29.91, 100.0
29.91, 100.0
29.91, 100.0
29.91, 100.0
29.91, 100.0
29.91, 100.0
29.91, 100.0
29.91, 100.0
29.91, 100.0
29.91, 100.0
29.91, 100.0
29.91, 100.0
29.91, 100.0
29.91, 100.0
29.91, 100.0
29.91, 100.0
29.91, 100.0
29.91, 100.0
29.91, 100.0
29.91, 100.0
29.91, 100.0
29.91, 100.0
29.91, 100.0
29.91, 100.0
29.91, 100.0
29.91, 100.0
29.91, 100.0
29.91, 100.0
29.91, 100.0
29.91, 100.0
29.91, 100.0
29.91, 100.0
29.91, 100.0
29.91, 100.0
29.9, 100.0
29.9, 100.0
29.9, 100.0
29.9, 100.0
29.9, 100.0
29.9, 100.0
29.9, 100.0
29.9, 100.0
29.9, 100.0
29.9, 100.0
29.9, 100.0
29.9, 100.0
29.9, 100.0
29.9, 100.0
29.9, 100.0
29.9, 100.0
29.9, 100.0
29.9, 100.0
29.9, 100.0
29.9, 100.0
29.9, 100.0
29.9, 100.0
29.9, 100.0
29.9, 100.0
29.9, 100.0
29.9, 100.0
29.9, 100.0
29.9, 100.0
29.9, 100.0
29.9, 100.0
29.9, 100.0
29.9, 100.0
29.9, 100.0
29.9, 100.0
29.9, 100.0
29.9, 100.0
29.9, 100.0
29.9, 100.0
29.9, 100.0
29.9, 100.0
29.9, 100.0
29.9, 100.0
29.9, 100.0
29.9, 100.0
29.9, 100.0
29.9, 100.0
29.9, 100.0
29.9, 100.0
29.9, 100.0
29.9, 100.0
29.9, 100.0
29.9, 100.0
29.9, 100.0
29.9, 100.0
29.9, 100.0
29.89, 100.0
29.89, 100.0
29.89, 100.0
29.89, 100.0
29.89, 100.0
29.89, 100.0
29.89, 100.0
29.89, 100.0
29.89, 100.0
29.89, 100.0
29.89, 100.0
29.89, 100.0
29.89, 100.0
29.89, 100.0
29.89, 100.0
29.89, 100.0
29.89, 100.0
29.89, 100.0
29.89, 100.0
29.89, 100.0
29.89, 100.0
29.89, 100.0
29.89, 100.0
29.89, 100.0
29.89, 100.0
29.89, 100.0
29.89, 100.0
29.89, 100.0
29.89, 100.0
29.89, 100.0
29.89, 100.0
29.89, 100.0
29.89, 100.0
29.89, 100.0
29.89, 100.0
29.89, 100.0
29.89, 100.0
29.89, 100.0
29.89, 100.0
29.89, 100.0
29.89, 100.0
29.89, 100.0
29.89, 100.0
29.89, 100.0
29.89, 100.0
29.89, 100.0
29.89, 100.0
29.89, 100.0
29.89, 100.0
29.88, 100.0
29.88, 100.0
29.88, 100.0
29.88, 100.0
29.88, 100.0
29.88, 100.0
29.88, 100.0
29.88, 100.0
29.88, 100.0
29.88, 100.0
29.88, 100.0
29.88, 100.0
29.88, 100.0
29.88, 100.0
29.88, 100.0
29.88, 100.0
29.88, 100.0
29.88, 100.0
29.88, 100.0
29.88, 100.0
29.88, 100.0
29.88, 100.0
29.88, 100.0
29.88, 100.0
29.88, 100.0
29.88, 100.0
29.88, 100.0
29.88, 100.0
29.88, 100.0
29.88, 100.0
29.88, 100.0
29.88, 100.0
29.88, 100.0
29.88, 100.0
29.88, 100.0
29.88, 100.0
29.88, 100.0
29.88, 100.0
29.88, 100.0
29.88, 100.0
29.88, 100.0
29.88, 100.0
29.88, 100.0
29.87, 100.0
29.87, 100.0
29.87, 100.0
29.87, 100.0
29.87, 100.0
29.87, 100.0
29.87, 100.0
29.87, 100.0
29.87, 100.0
29.87, 100.0
29.87, 100.0
29.87, 100.0
29.87, 100.0
29.87, 100.0
29.87, 100.0
29.87, 100.0
29.87, 100.0
29.87, 100.0
29.87, 100.0
29.87, 100.0
29.87, 100.0
29.87, 100.0
29.87, 100.0
29.87, 100.0
29.87, 100.0
29.87, 100.0
29.87, 100.0
29.87, 100.0
29.87, 100.0
29.87, 100.0
29.87, 100.0
29.87, 100.0
29.87, 100.0
29.87, 100.0
29.87, 100.0
29.87, 100.0
29.87, 100.0
29.87, 100.0
29.87, 100.0
29.86, 100.0
29.86, 100.0
29.86, 100.0
29.86, 100.0
29.86, 100.0
29.86, 100.0
29.86, 100.0
29.86, 100.0
29.86, 99.99
29.86, 99.99
29.86, 99.99
29.86, 99.99
29.86, 99.99
29.86, 99.99
29.86, 99.99
29.86, 99.99
29.86, 99.99
29.86, 99.99
29.86, 99.99
29.86, 99.99
29.86, 99.99
29.86, 99.99
29.86, 99.99
29.86, 99.99
29.86, 99.99
29.86, 99.99
29.86, 99.99
29.86, 99.99
29.86, 99.99
29.86, 99.99
29.86, 99.99
29.86, 99.99
29.86, 99.99
29.86, 99.99
29.86, 99.99
29.86, 99.99
29.86, 99.99
29.86, 99.99
29.85, 99.99
29.85, 99.99
29.85, 99.99
29.85, 99.99
29.85, 99.99
29.85, 99.99
29.85, 99.99
29.85, 99.99
29.85, 99.99
29.85, 99.99
29.85, 99.99
29.85, 99.99
29.85, 99.99
29.85, 99.99
29.85, 99.99
29.85, 99.99
29.85, 99.99
29.85, 99.99
29.85, 99.99
29.85, 99.99
29.85, 99.99
29.85, 99.99
29.85, 99.99
29.85, 99.99
29.85, 99.99
29.85, 99.99
29.85, 99.99
29.85, 99.99
29.85, 99.99
29.85, 99.99
29.85, 99.99
29.85, 99.99
29.85, 99.99
29.85, 99.99
29.85, 99.99
29.84, 99.99
29.84, 99.99
29.84, 99.99
29.84, 99.99
29.84, 99.99
29.84, 99.99
29.84, 99.99
29.84, 99.99
29.84, 99.99
29.84, 99.99
29.84, 99.99
29.84, 99.99
29.84, 99.99
29.84, 99.99
29.84, 99.99
29.84, 99.99
29.84, 99.99
29.84, 99.99
29.84, 99.99
29.84, 99.99
29.84, 99.99
29.84, 99.99
29.84, 99.99
29.84, 99.99
29.84, 99.99
29.84, 99.99
29.84, 99.99
29.84, 99.99
29.84, 99.99
29.84, 99.99
29.84, 99.99
29.84, 99.99
29.84, 99.99
29.83, 99.99
29.83, 99.99
29.83, 99.99
29.83, 99.99
29.83, 99.99
29.83, 99.99
29.83, 99.99
29.83, 99.99
29.83, 99.99
29.83, 99.99
29.83, 99.99
29.83, 99.99
29.83, 99.99
29.83, 99.99
29.83, 99.99
29.83, 99.99
29.83, 99.99
29.83, 99.99
29.83, 99.99
29.83, 99.99
29.83, 99.99
29.83, 99.99
29.83, 99.99
29.83, 99.99
29.83, 99.99
29.83, 99.99
29.83, 99.99
29.83, 99.99
29.83, 99.99
29.83, 99.99
29.83, 99.99
29.82, 99.99
29.82, 99.99
29.82, 99.99
29.82, 99.99
29.82, 99.99
29.82, 99.99
29.82, 99.99
29.82, 99.99
29.82, 99.99
29.82, 99.99
29.82, 99.99
29.82, 99.99
29.82, 99.99
29.82, 99.99
29.82, 99.99
29.82, 99.99
29.82, 99.99
29.82, 99.99
29.82, 99.99
29.82, 99.99
29.82, 99.99
29.82, 99.99
29.82, 99.99
29.82, 99.99
29.82, 99.99
29.82, 99.99
29.82, 99.99
29.82, 99.99
29.82, 99.99
29.81, 99.99
29.81, 99.99
29.81, 99.99
29.81, 99.99
29.81, 99.99
29.81, 99.99
29.81, 99.99
29.81, 99.99
29.81, 99.99
29.81, 99.99
29.81, 99.99
29.81, 99.99
29.81, 99.99
29.81, 99.99
29.81, 99.99
29.81, 99.99
29.81, 99.99
29.81, 99.99
29.81, 99.99
29.81, 99.99
29.81, 99.99
29.81, 99.99
29.81, 99.99
29.81, 99.99
29.81, 99.99
29.81, 99.99
29.81, 99.99
29.8, 99.99
29.8, 99.99
29.8, 99.99
29.8, 99.99
29.8, 99.99
29.8, 99.99
29.8, 99.99
29.8, 99.99
29.8, 99.99
29.8, 99.99
29.8, 99.99
29.8, 99.99
29.8, 99.99
29.8, 99.99
29.8, 99.99
29.8, 99.99
29.8, 99.99
29.8, 99.99
29.8, 99.99
29.8, 99.99
29.8, 99.99
29.8, 99.99
29.8, 99.99
29.8, 99.99
29.8, 99.99
29.8, 99.99
29.79, 99.99
29.79, 99.99
29.79, 99.99
29.79, 99.99
29.79, 99.99
29.79, 99.99
29.79, 99.99
29.79, 99.99
29.79, 99.99
29.79, 99.99
29.79, 99.99
29.79, 99.99
29.79, 99.99
29.79, 99.99
29.79, 99.99
29.79, 99.99
29.79, 99.99
29.79, 99.99
29.79, 99.99
29.79, 99.99
29.79, 99.99
29.79, 99.99
29.79, 99.99
29.79, 99.99
29.79, 99.99
29.79, 99.99
29.78, 99.99
29.78, 99.99
29.78, 99.99
29.78, 99.99
29.78, 99.99
29.78, 99.99
29.78, 99.99
29.78, 99.99
29.78, 99.99
29.78, 99.99
29.78, 99.99
29.78, 99.99
29.78, 99.99
29.78, 99.99
29.78, 99.99
29.78, 99.99
29.78, 99.99
29.78, 99.99
29.78, 99.99
29.78, 99.99
29.78, 99.99
29.78, 99.99
29.78, 99.99
29.78, 99.99
29.77, 99.99
29.77, 99.99
29.77, 99.99
29.77, 99.99
29.77, 99.99
29.77, 99.99
29.77, 99.99
29.77, 99.99
29.77, 99.99
29.77, 99.99
29.77, 99.99
29.77, 99.99
29.77, 99.99
29.77, 99.99
29.77, 99.99
29.77, 99.99
29.77, 99.99
29.77, 99.99
29.77, 99.99
29.77, 99.99
29.77, 99.99
29.77, 99.99
29.77, 99.99
29.77, 99.99
29.76, 99.99
29.76, 99.99
29.76, 99.99
29.76, 99.99
29.76, 99.99
29.76, 99.99
29.76, 99.99
29.76, 99.99
29.76, 99.99
29.76, 99.99
29.76, 100.0
29.76, 100.0
29.76, 100.0
29.76, 100.0
29.76, 100.0
29.76, 100.0
29.76, 100.0
29.76, 100.0
29.76, 100.0
29.76, 100.0
29.76, 100.0
29.76, 100.0
29.76, 100.0
29.75, 100.0
29.75, 100.0
29.75, 100.0
29.75, 100.0
29.75, 100.0
29.75, 100.0
29.75, 100.0
29.75, 100.0
29.75, 100.0
29.75, 100.0
29.75, 100.0
29.75, 100.0
29.75, 100.0
29.75, 100.0
29.75, 100.0
29.75, 100.0
29.75, 100.0
29.75, 100.0
29.75, 100.0
29.75, 100.0
29.75, 100.0
29.75, 100.0
29.75, 100.0
29.74, 100.0
29.74, 100.0
29.74, 100.0
29.74, 100.0
29.74, 100.0
29.74, 100.0
29.74, 100.0
29.74, 100.0
29.74, 100.0
29.74, 100.0
29.74, 100.0
29.74, 100.0
29.74, 100.0
29.74, 100.0
29.74, 100.0
29.74, 100.0
29.74, 100.0
29.74, 100.0
29.74, 100.0
29.74, 100.0
29.74, 100.0
29.74, 100.0
29.74, 100.0
29.73, 100.0
29.73, 100.0
29.73, 100.0
29.73, 100.0
29.73, 100.0
29.73, 100.0
29.73, 100.0
29.73, 100.0
29.73, 100.0
29.73, 100.0
29.73, 100.0
29.73, 100.0
29.73, 100.0
29.73, 100.0
29.73, 100.0
29.73, 100.0
29.73, 100.0
29.73, 100.0
29.73, 100.0
29.73, 100.0
29.73, 100.0
29.73, 100.0
29.72, 100.0
29.72, 100.0
29.72, 100.0
29.72, 100.0
29.72, 100.0
29.72, 100.0
29.72, 100.0
29.72, 100.0
29.72, 100.0
29.72, 100.0
29.72, 100.0
29.72, 100.0
29.72, 100.0
29.72, 100.0
29.72, 100.0
29.72, 100.0
29.72, 100.0
29.72, 100.0
29.72, 100.0
29.72, 100.0
29.72, 100.0
29.72, 100.0
29.71, 100.0
29.71, 100.0
29.71, 100.0
29.71, 100.0
29.71, 100.0
29.71, 100.0
29.71, 100.0
29.71, 100.0
29.71, 100.0
29.71, 100.0
29.71, 100.0
29.71, 100.0
29.71, 100.0
29.71, 100.0
29.71, 100.0
29.71, 100.0
29.71, 100.0
29.71, 100.0
29.71, 100.0
29.71, 100.0
29.71, 100.0
29.7, 100.0
29.7, 100.0
29.7, 100.0
29.7, 100.0
29.7, 100.0
29.7, 100.0
29.7, 100.0
29.7, 100.0
29.7, 100.0
29.7, 100.0
29.7, 100.0
29.7, 100.0
29.7, 100.0
29.7, 100.0
29.7, 100.0
29.7, 100.0
29.7, 100.0
29.7, 100.0
29.7, 100.0
29.7, 100.0
29.7, 100.0
29.69, 100.0
29.69, 100.0
29.69, 100.0
29.69, 100.0
29.69, 100.0
29.69, 100.0
29.69, 100.0
29.69, 100.0
29.69, 100.0
29.69, 100.0
29.69, 100.0
29.69, 100.0
29.69, 100.0
29.69, 100.0
29.69, 100.0
29.69, 100.0
29.69, 100.0
29.69, 100.0
29.69, 100.0
29.69, 100.0
29.69, 100.0
29.68, 100.0
29.68, 100.0
29.68, 100.0
29.68, 100.0
29.68, 100.0
29.68, 100.0
29.68, 100.0
29.68, 100.0
29.68, 100.0
29.68, 100.0
29.68, 100.0
29.68, 100.0
29.68, 100.0
29.68, 100.0
29.68, 100.0
29.68, 100.0
29.68, 100.0
29.68, 100.0
29.68, 100.0
29.68, 100.0
29.67, 100.0
29.67, 100.0
29.67, 100.0
29.67, 100.0
29.67, 99.99
29.67, 99.99
29.67, 99.99
29.67, 99.99
29.67, 100.0
29.67, 99.99
29.67, 99.99
29.67, 99.99
29.67, 99.99
29.67, 100.0
29.67, 99.99
29.67, 99.99
29.67, 99.99
29.67, 99.99
29.67, 99.99
29.67, 99.99
29.67, 99.99
29.66, 99.99
29.66, 99.99
29.66, 99.99
29.66, 99.99
29.66, 99.99
29.66, 99.99
29.66, 99.99
29.66, 99.99
29.66, 99.99
29.66, 99.99
29.66, 99.99
29.66, 99.99
29.66, 99.99
29.66, 99.99
29.66, 99.99
29.66, 99.99
29.66, 99.99
29.66, 99.99
29.66, 99.99
29.66, 99.99
29.65, 99.99
29.65, 99.99
29.65, 99.99
29.65, 99.99
29.65, 99.99
29.65, 99.99
29.65, 99.99
29.65, 99.99
29.65, 99.99
29.65, 99.99
29.65, 99.99
29.65, 99.99
29.65, 99.99
29.65, 99.99
29.65, 99.99
29.65, 99.99
29.65, 99.99
29.65, 99.99
29.65, 99.99
29.65, 99.99
29.64, 99.99
29.64, 99.99
29.64, 99.99
29.64, 99.99
29.64, 99.99
29.64, 99.99
29.64, 99.99
29.64, 99.99
29.64, 99.99
29.64, 99.99
29.64, 99.99
29.64, 99.99
29.64, 99.99
29.64, 99.99
29.64, 99.99
29.64, 99.99
29.64, 99.99
29.64, 99.99
29.64, 99.99
29.63, 99.99
29.63, 99.99
29.63, 99.99
29.63, 99.99
29.63, 99.99
29.63, 99.99
29.63, 99.99
29.63, 99.99
29.63, 99.99
29.63, 99.99
29.63, 99.99
29.63, 99.99
29.63, 99.99
29.63, 99.99
29.63, 99.99
29.63, 99.99
29.63, 99.99
29.63, 99.99
29.63, 99.99
29.62, 99.99
29.62, 99.99
29.62, 99.99
29.62, 99.99
29.62, 99.99
29.62, 99.99
29.62, 99.99
29.62, 99.99
29.62, 99.99
29.62, 99.99
29.62, 99.99
29.62, 99.99
29.62, 99.99
29.62, 99.99
29.62, 99.99
29.62, 99.99
29.62, 99.99
29.62, 99.99
29.62, 99.99
29.61, 99.99
29.61, 99.99
29.61, 99.99
29.61, 99.99
29.61, 99.99
29.61, 99.99
29.61, 99.99
29.61, 99.99
29.61, 99.99
29.61, 99.99
29.61, 99.99
29.61, 99.99
29.61, 99.99
29.61, 99.99
29.61, 99.99
29.61, 99.99
29.61, 99.99
29.61, 99.99
29.6, 99.99
29.6, 99.99
29.6, 99.99
29.6, 99.99
29.6, 99.99
29.6, 99.99
29.6, 99.99
29.6, 99.99
29.6, 99.99
29.6, 99.99
29.6, 99.99
29.6, 99.99
29.6, 99.99
29.6, 99.99
29.6, 99.99
29.6, 99.99
29.6, 99.99
29.6, 99.99
29.6, 99.99
29.59, 99.99
29.59, 99.99
29.59, 99.99
29.59, 99.99
29.59, 99.99
29.59, 99.99
29.59, 99.99
29.59, 99.99
29.59, 99.99
29.59, 99.99
29.59, 99.99
29.59, 99.99
29.59, 99.99
29.59, 99.99
29.59, 99.99
29.59, 99.99
29.59, 99.99
29.59, 99.99
29.59, 99.99
29.58, 99.99
29.58, 99.99
29.58, 99.99
29.58, 99.99
29.58, 99.99
29.58, 99.99
##END=$$ End of the data block
