##TITLE=Spectrum
##JCAMP-DX=5.00 $$ chemotion-converter-app (1.5.0)
##DATA TYPE=THERMOGRAVIMETRIC ANALYSIS
##DATA CLASS=XYPOINTS
##ORIGIN=
##OWNER=
##XUNITS=DEGREES CELSIUS
##YUNITS=Weight %
##FIRSTX=29.12
##LASTX=29.71
##MINX=29.12
##MAXX=29.71
##MINY=99.99
##MAXY=99.99
##NPOINTS=1800
##FIRSTY=99.99
##XUNITS=DEGREES CELSIUS
##YUNITS=Weight %
##XYPOINTS=(XY..XY)
29.12, 99.99
29.12, 99.99
29.12, 99.99
29.12, 99.99
29.12, 99.99
29.12, 99.99
29.12, 99.99
29.12, 99.99
29.12, 99.99
29.12, 99.99
29.12, 99.99
29.12, 99.99
29.12, 99.99
29.12, 99.99
29.12, 99.99
29.12, 99.99
29.12, 99.99
29.12, 99.99
29.12, 99.99
29.12, 99.99
29.12, 99.99
29.12, 99.99
29.12, 99.99
29.12, 99.99
29.12, 99.99
29.12, 99.99
29.12, 99.99
29.12, 99.99
29.12, 99.99
29.12, 99.99
29.12, 99.99
29.12, 99.99
29.12, 99.99
29.12, 99.99
29.12, 99.99
29.12, 99.99
29.12, 99.99
29.12, 99.99
29.12, 99.99
29.12, 99.99
29.12, 99.99
29.12, 99.99
29.12, 99.99
29.12, 99.99
29.12, 99.99
29.12, 99.99
29.12, 99.99
29.12, 99.99
29.12, 99.99
29.12, 99.99
29.12, 99.99
29.12, 99.99
29.12, 99.99
29.13, 99.99
29.13, 99.99
29.13, 99.99
29.13, 99.99
29.13, 99.99
29.13, 99.99
29.13, 99.99
29.13, 99.99
29.13, 99.99
29.13, 99.99
29.13, 99.99
29.13, 99.99
29.13, 99.99
29.13, 99.99
29.13, 99.99
29.13, 99.99
29.13, 99.99
29.13, 99.99
29.13, 99.99
29.13, 99.99
29.13, 99.99
29.13, 99.99
29.13, 99.99
29.13, 99.99
29.13, 99.99
29.13, 99.99
29.13, 99.99
29.13, 99.99
29.13, 99.99
29.13, 99.99
29.13, 99.99
29.13, 99.99
29.13, 99.99
29.13, 99.99
29.13, 99.99
29.13, 99.99
29.13, 99.99
29.13, 99.99
29.13, 99.99
29.13, 99.99
29.13, 99.99
29.13, 99.99
29.13, 99.99
29.13, 99.99
29.13, 99.99
29.13, 99.99
29.13, 99.99
29.13, 99.99
29.13, 99.99
29.13, 99.99
29.13, 99.99
29.13, 99.99
29.13, 99.99
29.13, 99.99
29.13, 99.99
29.13, 99.99
29.13, 99.99
29.13, 99.99
29.13, 99.99
29.13, 99.99
29.13, 99.99
29.13, 99.99
29.13, 99.99
29.13, 99.99
29.13, 99.99
29.13, 99.99
29.13, 99.99
29.13, 99.99
29.13, 99.99
29.13, 99.99
29.14, 99.99
29.14, 99.99
29.14, 99.99
29.14, 99.99
29.14, 99.99
29.14, 99.99
29.14, 99.99
29.14, 99.99
29.14, 99.99
29.14, 99.99
29.14, 99.99
29.14, 99.99
29.14, 99.99
29.14, 99.99
29.14, 99.99
29.14, 99.99
29.14, 99.99
29.14, 99.99
29.14, 99.99
29.14, 99.99
29.14, 99.99
29.14, 99.99
29.14, 99.99
29.14, 99.99
29.14, 99.99
29.14, 99.99
29.14, 99.99
29.14, 99.99
29.14, 99.99
29.14, 99.99
29.14, 99.99
29.14, 99.99
29.14, 99.99
29.14, 99.99
29.14, 99.99
29.14, 99.99
29.14, 99.99
29.14, 99.99
29.14, 99.99
29.14, 99.99
29.14, 99.99
29.14, 99.99
29.14, 99.99
29.14, 99.99
29.14, 99.99
29.14, 99.99
29.14, 99.99
29.14, 99.99
29.14, 99.99
29.15, 99.99
29.15, 99.99
29.15, 99.99
29.15, 99.99
29.15, 99.99
29.15, 99.99
29.15, 99.99
29.15, 99.99
29.15, 99.99
29.15, 99.99
29.15, 99.99
29.15, 99.99
29.15, 99.99
29.15, 99.99
29.15, 99.99
29.15, 99.99
29.15, 99.99
29.15, 99.99
29.15, 99.99
29.15, 99.99
29.15, 99.99
29.15, 99.99
29.15, 99.99
29.15, 99.99
29.15, 99.99
29.15, 99.99
29.15, 99.99
29.15, 99.99
29.15, 99.99
29.15, 99.99
29.15, 99.99
29.15, 99.99
29.15, 99.99
29.15, 99.99
29.15, 99.99
29.15, 99.99
29.15, 99.99
29.15, 99.99
29.15, 99.99
29.15, 99.99
29.15, 99.99
29.16, 99.99
29.16, 99.99
29.16, 99.99
29.16, 99.99
29.16, 99.99
29.16, 99.99
29.16, 99.99
29.16, 99.99
29.16, 99.99
29.16, 99.99
29.16, 99.99
29.16, 99.99
29.16, 99.99
29.16, 99.99
29.16, 99.99
29.16, 99.99
29.16, 99.99
29.16, 99.99
29.16, 99.99
29.16, 99.99
29.16, 99.99
29.16, 99.99
29.16, 99.99
29.16, 99.99
29.16, 99.99
29.16, 99.99
29.16, 99.99
29.16, 99.99
29.16, 99.99
29.16, 99.99
29.16, 99.99
29.16, 99.99
29.16, 99.99
29.16, 99.99
29.16, 99.99
29.16, 99.99
29.16, 99.99
29.16, 99.99
29.16, 99.99
29.16, 99.99
29.16, 99.99
29.17, 99.99
29.17, 99.99
29.17, 99.99
29.17, 99.99
29.17, 99.99
29.17, 99.99
29.17, 99.99
29.17, 99.99
29.17, 99.99
29.17, 99.99
29.17, 99.99
29.17, 99.99
29.17, 99.99
29.17, 99.99
29.17, 99.99
29.17, 99.99
29.17, 99.99
29.17, 99.99
29.17, 99.99
29.17, 99.99
29.17, 99.99
29.17, 99.99
29.17, 99.99
29.17, 99.99
29.17, 99.99
29.17, 99.99
29.17, 99.99
29.17, 99.99
29.17, 99.99
29.17, 99.99
29.17, 99.99
29.17, 99.99
29.17, 99.99
29.17, 99.99
29.17, 99.99
29.17, 99.99
29.17, 99.99
29.17, 99.99
29.17, 99.99
29.17, 99.99
29.18, 99.99
29.18, 99.99
29.18, 99.99
29.18, 99.99
29.18, 99.99
29.18, 99.99
29.18, 99.99
29.18, 99.99
29.18, 99.99
29.18, 99.99
29.18, 99.99
29.18, 99.99
29.18, 99.99
29.18, 99.99
29.18, 99.99
29.18, 99.99
29.18, 99.99
29.18, 99.99
29.18, 99.99
29.18, 99.99
29.18, 99.99
29.18, 99.99
29.18, 99.99
29.18, 99.99
29.18, 99.99
29.18, 99.99
29.18, 99.99
29.18, 99.99
29.18, 99.99
29.18, 99.99
29.18, 99.99
29.18, 99.99
29.18, 99.99
29.18, 99.99
29.19, 99.99
29.19, 99.99
29.19, 99.99
29.19, 99.99
29.19, 99.99
29.19, 99.99
29.19, 99.99
29.19, 99.99
29.19, 99.99
29.19, 99.99
29.19, 99.99
29.19, 99.99
29.19, 99.99
29.19, 99.99
29.19, 99.99
29.19, 99.99
29.19, 99.99
29.19, 99.99
29.19, 99.99
29.19, 99.99
29.19, 99.99
29.19, 99.99
29.19, 99.99
29.19, 99.99
29.19, 99.99
29.19, 99.99
29.19, 99.99
29.19, 99.99
29.19, 99.99
29.19, 99.99
29.19, 99.99
29.2, 99.99
29.2, 99.99
29.2, 99.99
29.2, 99.99
29.2, 99.99
29.2, 99.99
29.2, 99.99
29.2, 99.99
29.2, 99.99
29.2, 99.99
29.2, 99.99
29.2, 99.99
29.2, 99.99
29.2, 99.99
29.2, 99.99
29.2, 99.99
29.2, 99.99
29.2, 99.99
29.2, 99.99
29.2, 99.99
29.2, 99.99
29.2, 99.99
29.2, 99.99
29.2, 99.99
29.2, 99.99
29.2, 99.99
29.2, 99.99
29.2, 99.99
29.2, 99.99
29.2, 99.99
29.2, 99.99
29.21, 99.99
29.21, 99.99
29.21, 99.99
29.21, 99.99
29.21, 99.99
29.21, 99.99
29.21, 99.99
29.21, 99.99
29.21, 99.99
29.21, 99.99
29.21, 99.99
29.21, 99.99
29.21, 99.99
29.21, 99.99
29.21, 99.99
29.21, 99.99
29.21, 99.99
29.21, 99.99
29.21, 99.99
29.21, 99.99
29.21, 99.99
29.21, 99.99
29.21, 99.99
29.21, 99.99
29.21, 99.99
29.21, 99.99
29.21, 99.99
29.21, 99.99
29.21, 99.99
29.22, 99.99
29.22, 99.99
29.22, 99.99
29.22, 99.99
29.22, 99.99
29.22, 99.99
29.22, 99.99
29.22, 99.99
29.22, 99.99
29.22, 99.99
29.22, 99.99
29.22, 99.99
29.22, 99.99
29.22, 99.99
29.22, 99.99
29.22, 99.99
29.22, 99.99
29.22, 99.99
29.22, 99.99
29.22, 99.99
29.22, 99.99
29.22, 99.99
29.22, 99.99
29.22, 99.99
29.22, 99.99
29.22, 99.99
29.22, 99.99
29.23, 99.99
29.23, 99.99
29.23, 99.99
29.23, 99.99
29.23, 99.99
29.23, 99.99
29.23, 99.99
29.23, 99.99
29.23, 99.99
29.23, 99.99
29.23, 99.99
29.23, 99.99
29.23, 99.99
29.23, 99.99
29.23, 99.99
29.23, 99.99
29.23, 99.99
29.23, 99.99
29.23, 99.99
29.23, 99.99
29.23, 99.99
29.23, 99.99
29.23, 99.99
29.23, 99.99
29.23, 99.99
29.23, 99.99
29.24, 99.99
29.24, 99.99
29.24, 99.99
29.24, 99.99
29.24, 99.99
29.24, 99.99
29.24, 99.99
29.24, 99.99
29.24, 99.99
29.24, 99.99
29.24, 99.99
29.24, 99.99
29.24, 99.99
29.24, 99.99
29.24, 99.99
29.24, 99.99
29.24, 99.99
29.24, 99.99
29.24, 99.99
29.24, 99.99
29.24, 99.99
29.24, 99.99
29.24, 99.99
29.24, 99.99
29.24, 99.99
29.24, 99.99
29.25, 99.99
29.25, 99.99
29.25, 99.99
29.25, 99.99
29.25, 99.99
29.25, 99.99
29.25, 99.99
29.25, 99.99
29.25, 99.99
29.25, 99.99
29.25, 99.99
29.25, 99.99
29.25, 99.99
29.25, 99.99
29.25, 99.99
29.25, 99.99
29.25, 99.99
29.25, 99.99
29.25, 99.99
29.25, 99.99
29.25, 99.99
29.25, 99.99
29.25, 99.99
29.25, 99.99
29.26, 99.99
29.26, 99.99
29.26, 99.99
29.26, 99.99
29.26, 99.99
29.26, 99.99
29.26, 99.99
29.26, 99.99
29.26, 99.99
29.26, 99.99
29.26, 99.99
29.26, 99.99
29.26, 99.99
29.26, 99.99
29.26, 99.99
29.26, 99.99
29.26, 99.99
29.26, 99.99
29.26, 99.99
29.26, 99.99
29.26, 99.99
29.26, 99.99
29.26, 99.99
29.26, 99.99
29.27, 99.99
29.27, 99.99
29.27, 99.99
29.27, 99.99
29.27, 99.99
29.27, 99.99
29.27, 99.99
29.27, 99.99
29.27, 99.99
29.27, 99.99
29.27, 99.99
29.27, 99.99
29.27, 99.99
29.27, 99.99
29.27, 99.99
29.27, 99.99
29.27, 99.99
29.27, 99.99
29.27, 99.99
29.27, 99.99
29.27, 99.99
29.27, 99.99
29.27, 99.99
29.28, 99.99
29.28, 99.99
29.28, 99.99
29.28, 99.99
29.28, 99.99
29.28, 99.99
29.28, 99.99
29.28, 99.99
29.28, 99.99
29.28, 99.99
29.28, 99.99
29.28, 99.99
29.28, 99.99
29.28, 99.99
29.28, 99.99
29.28, 99.99
29.28, 99.99
29.28, 99.99
29.28, 99.99
29.28, 99.99
29.28, 99.99
29.28, 99.99
29.28, 99.99
29.29, 99.99
29.29, 99.99
29.29, 99.99
29.29, 99.99
29.29, 99.99
29.29, 99.99
29.29, 99.99
29.29, 99.99
29.29, 99.99
29.29, 99.99
29.29, 99.99
29.29, 99.99
29.29, 99.99
29.29, 99.99
29.29, 99.99
29.29, 99.99
29.29, 99.99
29.29, 99.99
29.29, 99.99
29.29, 99.99
29.29, 99.99
29.29, 99.99
29.3, 99.99
29.3, 99.99
29.3, 99.99
29.3, 99.99
29.3, 99.99
29.3, 99.99
29.3, 99.99
29.3, 99.99
29.3, 99.99
29.3, 99.99
29.3, 99.99
29.3, 99.99
29.3, 99.99
29.3, 99.99
29.3, 99.99
29.3, 99.99
29.3, 99.99
29.3, 99.99
29.3, 99.99
29.3, 99.99
29.3, 99.99
29.3, 99.99
29.31, 99.99
29.31, 99.99
29.31, 99.99
29.31, 99.99
29.31, 99.99
29.31, 99.99
29.31, 99.99
29.31, 99.99
29.31, 99.99
29.31, 99.99
29.31, 99.99
29.31, 99.99
29.31, 99.99
29.31, 99.99
29.31, 99.99
29.31, 99.99
29.31, 99.99
29.31, 99.99
29.31, 99.99
29.31, 99.99
29.31, 99.99
29.32, 99.99
29.32, 99.99
29.32, 99.99
29.32, 99.99
29.32, 99.99
29.32, 99.99
29.32, 99.99
29.32, 99.99
29.32, 99.99
29.32, 99.99
29.32, 99.99
29.32, 99.99
29.32, 99.99
29.32, 99.99
29.32, 99.99
29.32, 99.99
29.32, 99.99
29.32, 99.99
29.32, 99.99
29.32, 99.99
29.32, 99.99
29.33, 99.99
29.33, 99.99
29.33, 99.99
29.33, 99.99
29.33, 99.99
29.33, 99.99
29.33, 99.99
29.33, 99.99
29.33, 99.99
29.33, 99.99
29.33, 99.99
29.33, 99.99
29.33, 99.99
29.33, 99.99
29.33, 99.99
29.33, 99.99
29.33, 99.99
29.33, 99.99
29.33, 99.99
29.33, 99.99
29.34, 99.99
29.34, 99.99
29.34, 99.99
29.34, 99.99
29.34, 99.99
29.34, 99.99
29.34, 99.99
29.34, 99.99
29.34, 99.99
29.34, 99.99
29.34, 99.99
29.34, 99.99
29.34, 99.99
29.34, 99.99
29.34, 99.99
29.34, 99.99
29.34, 99.99
29.34, 99.99
29.34, 99.99
29.35, 99.99
29.35, 99.99
29.35, 99.99
29.35, 99.99
29.35, 99.99
29.35, 99.99
29.35, 99.99
29.35, 99.99
29.35, 99.99
29.35, 99.99
29.35, 99.99
29.35, 99.99
29.35, 99.99
29.35, 99.99
29.35, 99.99
29.35, 99.99
29.35, 99.99
29.35, 99.99
29.36, 99.99
29.36, 99.99
29.36, 99.99
29.36, 99.99
29.36, 99.99
29.36, 99.99
29.36, 99.99
29.36, 99.99
29.36, 99.99
29.36, 99.99
29.36, 99.99
29.36, 99.99
29.36, 99.99
29.36, 99.99
29.36, 99.99
29.36, 99.99
29.36, 99.99
29.36, 99.99
29.36, 99.99
29.37, 99.99
29.37, 99.99
29.37, 99.99
29.37, 99.99
29.37, 99.99
29.37, 99.99
29.37, 99.99
29.37, 99.99
29.37, 99.99
29.37, 99.99
29.37, 99.99
29.37, 99.99
29.37, 99.99
29.37, 99.99
29.37, 99.99
29.37, 99.99
29.37, 99.99
29.37, 99.99
29.37, 99.99
29.38, 99.99
29.38, 99.99
29.38, 99.99
29.38, 99.99
29.38, 99.99
29.38, 99.99
29.38, 99.99
29.38, 99.99
29.38, 99.99
29.38, 99.99
29.38, 99.99
29.38, 99.99
29.38, 99.99
29.38, 99.99
29.38, 99.99
29.38, 99.99
29.38, 99.99
29.38, 99.99
29.38, 99.99
29.39, 99.99
29.39, 99.99
29.39, 99.99
29.39, 99.99
29.39, 99.99
29.39, 99.99
29.39, 99.99
29.39, 99.99
29.39, 99.99
29.39, 99.99
29.39, 99.99
29.39, 99.99
29.39, 99.99
29.39, 99.99
29.39, 99.99
29.39, 99.99
29.39, 99.99
29.39, 99.99
29.4, 99.99
29.4, 99.99
29.4, 99.99
29.4, 99.99
29.4, 99.99
29.4, 99.99
29.4, 99.99
29.4, 99.99
29.4, 99.99
29.4, 99.99
29.4, 99.99
29.4, 99.99
29.4, 99.99
29.4, 99.99
29.4, 99.99
29.4, 99.99
29.4, 99.99
29.4, 99.99
29.41, 99.99
29.41, 99.99
29.41, 99.99
29.41, 99.99
29.41, 99.99
29.41, 99.99
29.41, 99.99
29.41, 99.99
29.41, 99.99
29.41, 99.99
29.41, 99.99
29.41, 99.99
29.41, 99.99
29.41, 99.99
29.41, 99.99
29.41, 99.99
29.41, 99.99
29.41, 99.99
29.41, 99.99
29.42, 99.99
29.42, 99.99
29.42, 99.99
29.42, 99.99
29.42, 99.99
29.42, 99.99
29.42, 99.99
29.42, 99.99
29.42, 99.99
29.42, 99.99
29.42, 99.99
29.42, 99.99
29.42, 99.99
29.42, 99.99
29.42, 99.99
29.42, 99.99
29.42, 99.99
29.42, 99.99
29.42, 99.99
29.43, 99.99
29.43, 99.99
29.43, 99.99
29.43, 99.99
29.43, 99.99
29.43, 99.99
29.43, 99.99
29.43, 99.99
29.43, 99.99
29.43, 99.99
29.43, 99.99
29.43, 99.99
29.43, 99.99
29.43, 99.99
29.43, 99.99
29.43, 99.99
29.43, 99.99
29.43, 99.99
29.43, 99.99
29.44, 99.99
29.44, 99.99
29.44, 99.99
29.44, 99.99
29.44, 99.99
29.44, 99.99
29.44, 99.99
29.44, 99.99
29.44, 99.99
29.44, 99.99
29.44, 99.99
29.44, 99.99
29.44, 99.99
29.44, 99.99
29.44, 99.99
29.44, 99.99
29.44, 99.99
29.44, 99.99
29.44, 99.99
29.45, 99.99
29.45, 99.99
29.45, 99.99
29.45, 99.99
29.45, 99.99
29.45, 99.99
29.45, 99.99
29.45, 99.99
29.45, 99.99
29.45, 99.99
29.45, 99.99
29.45, 99.99
29.45, 99.99
29.45, 99.99
29.45, 99.99
29.45, 99.99
29.45, 99.99
29.45, 99.99
29.45, 99.99
29.46, 99.99
29.46, 99.99
29.46, 99.99
29.46, 99.99
29.46, 99.99
29.46, 99.99
29.46, 99.99
29.46, 99.99
29.46, 99.99
29.46, 99.99
29.46, 99.99
29.46, 99.99
29.46, 99.99
29.46, 99.99
29.46, 99.99
29.46, 99.99
29.46, 99.99
29.46, 99.99
29.46, 99.99
29.46, 99.99
29.47, 99.99
29.47, 99.99
29.47, 99.99
29.47, 99.99
29.47, 99.99
29.47, 99.99
29.47, 99.99
29.47, 99.99
29.47, 99.99
29.47, 99.99
29.47, 99.99
29.47, 99.99
29.47, 99.99
29.47, 99.99
29.47, 99.99
29.47, 99.99
29.47, 99.99
29.47, 99.99
29.47, 99.99
29.47, 99.99
29.48, 99.99
29.48, 99.99
29.48, 99.99
29.48, 99.99
29.48, 99.99
29.48, 99.99
29.48, 99.99
29.48, 99.99
29.48, 99.99
29.48, 99.99
29.48, 99.99
29.48, 99.99
29.48, 99.99
29.48, 99.99
29.48, 99.99
29.48, 99.99
29.48, 99.99
29.48, 99.99
29.48, 99.99
29.48, 99.99
29.48, 99.99
29.49, 99.99
29.49, 99.99
29.49, 99.99
29.49, 99.99
29.49, 99.99
29.49, 99.99
29.49, 99.99
29.49, 99.99
29.49, 99.99
29.49, 99.99
29.49, 99.99
29.49, 99.99
29.49, 99.99
29.49, 99.99
29.49, 99.99
29.49, 99.99
29.49, 99.99
29.49, 99.99
29.49, 99.99
29.49, 99.99
29.5, 99.99
29.5, 99.99
29.5, 99.99
29.5, 99.99
29.5, 99.99
29.5, 99.99
29.5, 99.99
29.5, 99.99
29.5, 99.99
29.5, 99.99
29.5, 99.99
29.5, 99.99
29.5, 99.99
29.5, 99.99
29.5, 99.99
29.5, 99.99
29.5, 99.99
29.5, 99.99
29.5, 99.99
29.5, 99.99
29.5, 99.99
29.51, 99.99
29.51, 99.99
29.51, 99.99
29.51, 99.99
29.51, 99.99
29.51, 99.99
29.51, 99.99
29.51, 99.99
29.51, 99.99
29.51, 99.99
29.51, 99.99
29.51, 99.99
29.51, 99.99
29.51, 99.99
29.51, 99.99
29.51, 99.99
29.51, 99.99
29.51, 99.99
29.51, 99.99
29.51, 99.99
29.52, 99.99
29.52, 99.99
29.52, 99.99
29.52, 99.99
29.52, 99.99
29.52, 99.99
29.52, 99.99
29.52, 99.99
29.52, 99.99
29.52, 99.99
29.52, 99.99
29.52, 99.99
29.52, 99.99
29.52, 99.99
29.52, 99.99
29.52, 99.99
29.52, 99.99
29.52, 99.99
29.52, 99.99
29.52, 99.99
29.53, 99.99
29.53, 99.99
29.53, 99.99
29.53, 99.99
29.53, 99.99
29.53, 99.99
29.53, 99.99
29.53, 99.99
29.53, 99.99
29.53, 99.99
29.53, 99.99
29.53, 99.99
29.53, 99.99
29.53, 99.99
29.53, 99.99
29.53, 99.99
29.53, 99.99
29.53, 99.99
29.53, 99.99
29.53, 99.99
29.53, 99.99
29.54, 99.99
29.54, 99.99
29.54, 99.99
29.54, 99.99
29.54, 99.99
29.54, 99.99
29.54, 99.99
29.54, 99.99
29.54, 99.99
29.54, 99.99
29.54, 99.99
29.54, 99.99
29.54, 99.99
29.54, 99.99
29.54, 99.99
29.54, 99.99
29.54, 99.99
29.54, 99.99
29.54, 99.99
29.54, 99.99
29.54, 99.99
29.55, 99.99
29.55, 99.99
29.55, 99.99
29.55, 99.99
29.55, 99.99
29.55, 99.99
29.55, 99.99
29.55, 99.99
29.55, 99.99
29.55, 99.99
29.55, 99.99
29.55, 99.99
29.55, 99.99
29.55, 99.99
29.55, 99.99
29.55, 99.99
29.55, 99.99
29.55, 99.99
29.55, 99.99
29.55, 99.99
29.55, 99.99
29.55, 99.99
29.55, 99.99
29.56, 99.99
29.56, 99.99
29.56, 99.99
29.56, 99.99
29.56, 99.99
29.56, 99.99
29.56, 99.99
29.56, 99.99
29.56, 99.99
29.56, 99.99
29.56, 99.99
29.56, 99.99
29.56, 99.99
29.56, 99.99
29.56, 99.99
29.56, 99.99
29.56, 99.99
29.56, 99.99
29.56, 99.99
29.56, 99.99
29.56, 99.99
29.56, 99.99
29.56, 99.99
29.57, 99.99
29.57, 99.99
29.57, 99.99
29.57, 99.99
29.57, 99.99
29.57, 99.99
29.57, 99.99
29.57, 99.99
29.57, 99.99
29.57, 99.99
29.57, 99.99
29.57, 99.99
29.57, 99.99
29.57, 99.99
29.57, 99.99
29.57, 99.99
29.57, 99.99
29.57, 99.99
29.57, 99.99
29.57, 99.99
29.57, 99.99
29.57, 99.99
29.57, 99.99
29.58, 99.99
29.58, 99.99
29.58, 99.99
29.58, 99.99
29.58, 99.99
29.58, 99.99
29.58, 99.99
29.58, 99.99
29.58, 99.99
29.58, 99.99
29.58, 99.99
29.58, 99.99
29.58, 99.99
29.58, 99.99
29.58, 99.99
29.58, 99.99
29.58, 99.99
29.58, 99.99
29.58, 99.99
29.58, 99.99
29.58, 99.99
29.58, 99.99
29.58, 99.99
29.58, 99.99
29.59, 99.99
29.59, 99.99
29.59, 99.99
29.59, 99.99
29.59, 99.99
29.59, 99.99
29.59, 99.99
29.59, 99.99
29.59, 99.99
29.59, 99.99
29.59, 99.99
29.59, 99.99
29.59, 99.99
29.59, 99.99
29.59, 99.99
29.59, 99.99
29.59, 99.99
29.59, 99.99
29.59, 99.99
29.59, 99.99
29.59, 99.99
29.59, 99.99
29.59, 99.99
29.59, 99.99
29.59, 99.99
29.6, 99.99
29.6, 99.99
29.6, 99.99
29.6, 99.99
29.6, 99.99
29.6, 99.99
29.6, 99.99
29.6, 99.99
29.6, 99.99
29.6, 99.99
29.6, 99.99
29.6, 99.99
29.6, 99.99
29.6, 99.99
29.6, 99.99
29.6, 99.99
29.6, 99.99
29.6, 99.99
29.6, 99.99
29.6, 99.99
29.6, 99.99
29.6, 99.99
29.6, 99.99
29.6, 99.99
29.6, 99.99
29.6, 99.99
29.61, 99.99
29.61, 99.99
29.61, 99.99
29.61, 99.99
29.61, 99.99
29.61, 99.99
29.61, 99.99
29.61, 99.99
29.61, 99.99
29.61, 99.99
29.61, 99.99
29.61, 99.99
29.61, 99.99
29.61, 99.99
29.61, 99.99
29.61, 99.99
29.61, 99.99
29.61, 99.99
29.61, 99.99
29.61, 99.99
29.61, 99.99
29.61, 99.99
29.61, 99.99
29.61, 99.99
29.61, 99.99
29.61, 99.99
29.61, 99.99
29.61, 99.99
29.62, 99.99
29.62, 99.99
29.62, 99.99
29.62, 99.99
29.62, 99.99
29.62, 99.99
29.62, 99.99
29.62, 99.99
29.62, 99.99
29.62, 99.99
29.62, 99.99
29.62, 99.99
29.62, 99.99
29.62, 99.99
29.62, 99.99
29.62, 99.99
29.62, 99.99
29.62, 99.99
29.62, 99.99
29.62, 99.99
29.62, 99.99
29.62, 99.99
29.62, 99.99
29.62, 99.99
29.62, 99.99
29.62, 99.99
29.62, 99.99
29.62, 99.99
29.62, 99.99
29.62, 99.99
29.63, 99.99
29.63, 99.99
29.63, 99.99
29.63, 99.99
29.63, 99.99
29.63, 99.99
29.63, 99.99
29.63, 99.99
29.63, 99.99
29.63, 99.99
29.63, 99.99
29.63, 99.99
29.63, 99.99
29.63, 99.99
29.63, 99.99
29.63, 99.99
29.63, 99.99
29.63, 99.99
29.63, 99.99
29.63, 99.99
29.63, 99.99
29.63, 99.99
29.63, 99.99
29.63, 99.99
29.63, 99.99
29.63, 99.99
29.63, 99.99
29.63, 99.99
29.63, 99.99
29.63, 99.99
29.63, 99.99
29.64, 99.99
29.64, 99.99
29.64, 99.99
29.64, 99.99
29.64, 99.99
29.64, 99.99
29.64, 99.99
29.64, 99.99
29.64, 99.99
29.64, 99.99
29.64, 99.99
29.64, 99.99
29.64, 99.99
29.64, 99.99
29.64, 99.99
29.64, 99.99
29.64, 99.99
29.64, 99.99
29.64, 99.99
29.64, 99.99
29.64, 99.99
29.64, 99.99
29.64, 99.99
29.64, 99.99
29.64, 99.99
29.64, 99.99
29.64, 99.99
29.64, 99.99
29.64, 99.99
29.64, 99.99
29.64, 99.99
29.64, 99.99
29.64, 99.99
29.64, 99.99
29.65, 99.99
29.65, 99.99
29.65, 99.99
29.65, 99.99
29.65, 99.99
29.65, 99.99
29.65, 99.99
29.65, 99.99
29.65, 99.99
29.65, 99.99
29.65, 99.99
29.65, 99.99
29.65, 99.99
29.65, 99.99
29.65, 99.99
29.65, 99.99
29.65, 99.99
29.65, 99.99
29.65, 99.99
29.65, 99.99
29.65, 99.99
29.65, 99.99
29.65, 99.99
29.65, 99.99
29.65, 99.99
29.65, 99.99
29.65, 99.99
29.65, 99.99
29.65, 99.99
29.65, 99.99
29.65, 99.99
29.65, 99.99
29.65, 99.99
29.65, 99.99
29.65, 99.99
29.65, 99.99
29.65, 99.99
29.66, 99.99
29.66, 99.99
29.66, 99.99
29.66, 99.99
29.66, 99.99
29.66, 99.99
29.66, 99.99
29.66, 99.99
29.66, 99.99
29.66, 99.99
29.66, 99.99
29.66, 99.99
29.66, 99.99
29.66, 99.99
29.66, 99.99
29.66, 99.99
29.66, 99.99
29.66, 99.99
29.66, 99.99
29.66, 99.99
29.66, 99.99
29.66, 99.99
29.66, 99.99
29.66, 99.99
29.66, 99.99
29.66, 99.99
29.66, 99.99
29.66, 99.99
29.66, 99.99
29.66, 99.99
29.66, 99.99
29.66, 99.99
29.66, 99.99
29.66, 99.99
29.66, 99.99
29.66, 99.99
29.66, 99.99
29.66, 99.99
29.66, 99.99
29.66, 99.99
29.66, 99.99
29.67, 99.99
29.67, 99.99
29.67, 99.99
29.67, 99.99
29.67, 99.99
29.67, 99.99
29.67, 99.99
29.67, 99.99
29.67, 99.99
29.67, 99.99
29.67, 99.99
29.67, 99.99
29.67, 99.99
29.67, 99.99
29.67, 99.99
29.67, 99.99
29.67, 99.99
29.67, 99.99
29.67, 99.99
29.67, 99.99
29.67, 99.99
29.67, 99.99
29.67, 99.99
29.67, 99.99
29.67, 99.99
29.67, 99.99
29.67, 99.99
29.67, 99.99
29.67, 99.99
29.67, 99.99
29.67, 99.99
29.67, 99.99
29.67, 99.99
29.67, 99.99
29.67, 99.99
29.67, 99.99
29.67, 99.99
29.67, 99.99
29.67, 99.99
29.67, 99.99
29.67, 99.99
29.67, 99.99
29.67, 99.99
29.67, 99.99
29.67, 99.99
29.67, 99.99
29.67, 99.99
29.67, 99.99
29.67, 99.99
29.67, 99.99
29.68, 99.99
29.68, 99.99
29.68, 99.99
29.68, 99.99
29.68, 99.99
29.68, 99.99
29.68, 99.99
29.68, 99.99
29.68, 99.99
29.68, 99.99
29.68, 99.99
29.68, 99.99
29.68, 99.99
29.68, 99.99
29.68, 99.99
29.68, 99.99
29.68, 99.99
29.68, 99.99
29.68, 99.99
29.68, 99.99
29.68, 99.99
29.68, 99.99
29.68, 99.99
29.68, 99.99
29.68, 99.99
29.68, 99.99
29.68, 99.99
29.68, 99.99
29.68, 99.99
29.68, 99.99
29.68, 99.99
29.68, 99.99
29.68, 99.99
29.68, 99.99
29.68, 99.99
29.68, 99.99
29.68, 99.99
29.68, 99.99
29.68, 99.99
29.68, 99.99
29.68, 99.99
29.68, 99.99
29.68, 99.99
29.68, 99.99
29.68, 99.99
29.68, 99.99
29.68, 99.99
29.68, 99.99
29.68, 99.99
29.68, 99.99
29.68, 99.99
29.68, 99.99
29.68, 99.99
29.68, 99.99
29.68, 99.99
29.68, 99.99
29.68, 99.99
29.69, 99.99
29.69, 99.99
29.69, 99.99
29.69, 99.99
29.69, 99.99
29.69, 99.99
29.69, 99.99
29.69, 99.99
29.69, 99.99
29.69, 99.99
29.69, 99.99
29.69, 99.99
29.69, 99.99
29.69, 99.99
29.69, 99.99
29.69, 99.99
29.69, 99.99
29.69, 99.99
29.69, 99.99
29.69, 99.99
29.69, 99.99
29.69, 99.99
29.69, 99.99
29.69, 99.99
29.69, 99.99
29.69, 99.99
29.69, 99.99
29.69, 99.99
29.69, 99.99
29.69, 99.99
29.69, 99.99
29.69, 99.99
29.69, 99.99
29.69, 99.99
29.69, 99.99
29.69, 99.99
29.69, 99.99
29.69, 99.99
29.69, 99.99
29.69, 99.99
29.69, 99.99
29.69, 99.99
29.69, 99.99
29.69, 99.99
29.69, 99.99
29.69, 99.99
29.69, 99.99
29.69, 99.99
29.69, 99.99
29.69, 99.99
29.69, 99.99
29.69, 99.99
29.69, 99.99
29.69, 99.99
29.69, 99.99
29.69, 99.99
29.69, 99.99
29.69, 99.99
29.69, 99.99
29.69, 99.99
29.69, 99.99
29.69, 99.99
29.69, 99.99
29.69, 99.99
29.69, 99.99
29.69, 99.99
29.69, 99.99
29.69, 99.99
29.69, 99.99
29.69, 99.99
29.7, 99.99
29.7, 99.99
29.7, 99.99
29.7, 99.99
29.7, 99.99
29.7, 99.99
29.7, 99.99
29.7, 99.99
29.7, 99.99
29.7, 99.99
29.7, 99.99
29.7, 99.99
29.7, 99.99
29.7, 99.99
29.7, 99.99
29.7, 99.99
29.7, 99.99
29.7, 99.99
29.7, 99.99
29.7, 99.99
29.7, 99.99
29.7, 99.99
29.7, 99.99
29.7, 99.99
29.7, 99.99
29.7, 99.99
29.7, 99.99
29.7, 99.99
29.7, 99.99
29.7, 99.99
29.7, 99.99
29.7, 99.99
29.7, 99.99
29.7, 99.99
29.7, 99.99
29.7, 99.99
29.7, 99.99
29.7, 99.99
29.7, 99.99
29.7, 99.99
29.7, 99.99
29.7, 99.99
29.7, 99.99
29.7, 99.99
29.7, 99.99
29.7, 99.99
29.7, 99.99
29.7, 99.99
29.7, 99.99
29.7, 99.99
29.7, 99.99
29.7, 99.99
29.7, 99.99
29.7, 99.99
29.7, 99.99
29.7, 99.99
29.7, 99.99
29.7, 99.99
29.7, 99.99
29.7, 99.99
29.7, 99.99
29.7, 99.99
29.7, 99.99
29.7, 99.99
29.7, 99.99
29.7, 99.99
29.7, 99.99
29.7, 99.99
29.7, 99.99
29.7, 99.99
29.7, 99.99
29.7, 99.99
29.7, 99.99
29.7, 99.99
29.7, 99.99
29.7, 99.99
29.7, 99.99
29.7, 99.99
29.7, 99.99
29.7, 99.99
29.7, 99.99
29.71, 99.99
29.71, 99.99
29.71, 99.99
29.71, 99.99
29.71, 99.99
29.71, 99.99
29.71, 99.99
29.71, 99.99
29.71, 99.99
29.71, 99.99
29.71, 99.99
29.71, 99.99
29.71, 99.99
29.71, 99.99
29.71, 99.99
29.71, 99.99
29.71, 99.99
29.71, 99.99
29.71, 99.99
29.71, 99.99
29.71, 99.99
29.71, 99.99
29.71, 99.99
29.71, 99.99
29.71, 99.99
29.71, 99.99
29.71, 99.99
29.71, 99.99
29.71, 99.99
29.71, 99.99
29.71, 99.99
29.71, 99.99
29.71, 99.99
29.71, 99.99
29.71, 99.99
29.71, 99.99
29.71, 99.99
29.71, 99.99
29.71, 99.99
29.71, 99.99
29.71, 99.99
29.71, 99.99
29.71, 99.99
29.71, 99.99
29.71, 99.99
29.71, 99.99
29.71, 99.99
29.71, 99.99
29.71, 99.99
29.71, 99.99
29.71, 99.99
29.71, 99.99
29.71, 99.99
29.71, 99.99
29.71, 99.99
29.71, 99.99
29.71, 99.99
29.71, 99.99
29.71, 99.99
29.71, 99.99
29.71, 99.99
29.71, 99.99
29.71, 99.99
29.71, 99.99
29.71, 99.99
29.71, 99.99
29.71, 99.99
29.71, 99.99
29.71, 99.99
29.71, 99.99
29.71, 99.99
29.71, 99.99
29.71, 99.99
29.71, 99.99
29.71, 99.99
29.71, 99.99
29.71, 99.99
29.71, 99.99
29.71, 99.99
29.71, 99.99
29.71, 99.99
29.71, 99.99
29.71, 99.99
29.71, 99.99
29.71, 99.99
29.71, 99.99
29.71, 99.99
29.71, 99.99
29.71, 99.99
29.71, 99.99
##END=$$ End of the data block
