##TITLE=Spectrum
##JCAMP-DX=5.00 $$ chemotion-converter-app (1.1.0)
##DATA TYPE=CYCLIC VOLTAMMETRY
##DATA CLASS=XYPOINTS
##ORIGIN=
##OWNER=
##XUNITS=Voltage vs Ref
##YUNITS=Ampere
##SCAN_RATE=0.09994812
##STEP_SIZE=0.00106754
##VOLTAGE_LIMIT_END=0.50003051
##VOLTAGE_START=0.50109863
##VOLTAGE_LIMIT_ONE=1.00097656
##VOLTAGE_LIMIT_TWO=-0.0009155
##FIRSTX=0.5010986328125
##LASTX=0.500030517578125
##MINX=-0.00091552734375
##MAXX=1.0009765625
##MINY=-1.17767333984375e-05
##MAXY=1.23046875e-05
##NPOINTS=1876
##FIRSTY=3.78875732421875E-06
##XUNITS=Voltage vs Ref
##YUNITS=Ampere
##XYPOINTS=(XY..XY)
0.5010986328125, 3.78875732421875E-06
0.502166748046875, 3.84857177734375E-06
0.50323486328125, 3.90594482421875E-06
0.504302978515625, 3.9642333984375E-06
0.50537109375, 4.02069091796875E-06
0.506439208984375, 4.0838623046875E-06
0.50750732421875, 4.14031982421875E-06
0.508575439453125, 4.2034912109375E-06
0.5096435546875, 4.2596435546875E-06
0.510711669921875, 4.327392578125E-06
0.51177978515625, 4.38201904296875E-06
0.512847900390625, 4.44671630859375E-06
0.513916015625, 4.5050048828125E-06
0.514984130859375, 4.57183837890625E-06
0.51605224609375, 4.6295166015625E-06
0.517120361328125, 4.693603515625E-06
0.5181884765625, 4.75494384765625E-06
0.519256591796875, 4.8199462890625E-06
0.52032470703125, 4.88037109375E-06
0.521392822265625, 4.94384765625E-06
0.5224609375, 5.00885009765625E-06
0.523529052734375, 5.07110595703125E-06
0.52459716796875, 5.13519287109375E-06
0.525665283203125, 5.1971435546875E-06
0.5267333984375, 5.2667236328125E-06
0.527801513671875, 5.3253173828125E-06
0.52886962890625, 5.39398193359375E-06
0.529937744140625, 5.45379638671875E-06
0.531005859375, 5.52642822265625E-06
0.532073974609375, 5.5841064453125E-06
0.53314208984375, 5.6549072265625E-06
0.534210205078125, 5.71502685546875E-06
0.5352783203125, 5.78765869140625E-06
0.536346435546875, 5.84808349609375E-06
0.53741455078125, 5.91644287109375E-06
0.538482666015625, 5.98175048828125E-06
0.53955078125, 6.048583984375E-06
0.540618896484375, 6.1187744140625E-06
0.54168701171875, 6.182861328125E-06
0.542755126953125, 6.2530517578125E-06
0.5438232421875, 6.317138671875E-06
0.544891357421875, 6.38427734375E-06
0.54595947265625, 6.4453125E-06
0.547027587890625, 6.5185546875E-06
0.548095703125, 6.57958984375E-06
0.549163818359375, 6.65283203125E-06
0.55023193359375, 6.7138671875E-06
0.551300048828125, 6.7901611328125E-06
0.5523681640625, 6.84814453125E-06
0.553436279296875, 6.92138671875E-06
0.55450439453125, 6.9854736328125E-06
0.555572509765625, 7.0587158203125E-06
0.556640625, 7.1197509765625E-06
0.557708740234375, 7.18994140625E-06
0.55877685546875, 7.2601318359375E-06
0.559844970703125, 7.3272705078125E-06
0.5609130859375, 7.3944091796875E-06
0.561981201171875, 7.45849609375E-06
0.56304931640625, 7.5347900390625E-06
0.564117431640625, 7.5927734375E-06
0.565185546875, 7.666015625E-06
0.566253662109375, 7.7301025390625E-06
0.56732177734375, 7.806396484375E-06
0.568389892578125, 7.8643798828125E-06
0.5694580078125, 7.9376220703125E-06
0.570526123046875, 7.9986572265625E-06
0.57159423828125, 8.074951171875E-06
0.572662353515625, 8.1329345703125E-06
0.57373046875, 8.2061767578125E-06
0.574798583984375, 8.270263671875E-06
0.57586669921875, 8.343505859375E-06
0.576934814453125, 8.404541015625E-06
0.5780029296875, 8.4716796875E-06
0.579071044921875, 8.5418701171875E-06
0.58013916015625, 8.60595703125E-06
0.581207275390625, 8.673095703125E-06
0.582275390625, 8.734130859375E-06
0.583343505859375, 8.8104248046875E-06
0.58441162109375, 8.8653564453125E-06
0.585479736328125, 8.935546875E-06
0.5865478515625, 8.9935302734375E-06
0.587615966796875, 9.0728759765625E-06
0.58868408203125, 9.1278076171875E-06
0.589752197265625, 9.197998046875E-06
0.5908203125, 9.2559814453125E-06
0.591888427734375, 9.332275390625E-06
0.59295654296875, 9.3841552734375E-06
0.594024658203125, 9.454345703125E-06
0.5950927734375, 9.515380859375E-06
0.596160888671875, 9.58251953125E-06
0.59722900390625, 9.6405029296875E-06
0.598297119140625, 9.70458984375E-06
0.599365234375, 9.771728515625E-06
0.600433349609375, 9.832763671875E-06
0.60150146484375, 9.893798828125E-06
0.602569580078125, 9.9517822265625E-06
0.6036376953125, 1.002197265625E-05
0.604705810546875, 1.00738525390625E-05
0.60577392578125, 1.01409912109375E-05
0.606842041015625, 1.019287109375E-05
0.60791015625, 1.026611328125E-05
0.608978271484375, 1.03118896484375E-05
0.61004638671875, 1.03790283203125E-05
0.611114501953125, 1.0430908203125E-05
0.6121826171875, 1.05010986328125E-05
0.613250732421875, 1.0546875E-05
0.61431884765625, 1.06109619140625E-05
0.615386962890625, 1.0662841796875E-05
0.616455078125, 1.0723876953125E-05
0.617523193359375, 1.07757568359375E-05
0.61859130859375, 1.08306884765625E-05
0.619659423828125, 1.0888671875E-05
0.6207275390625, 1.09375E-05
0.621795654296875, 1.0992431640625E-05
0.62286376953125, 1.103515625E-05
0.623931884765625, 1.1102294921875E-05
0.625, 1.114501953125E-05
0.626068115234375, 1.1199951171875E-05
0.62713623046875, 1.124267578125E-05
0.628204345703125, 1.13037109375E-05
0.6292724609375, 1.134033203125E-05
0.630340576171875, 1.13983154296875E-05
0.63140869140625, 1.14349365234375E-05
0.632476806640625, 1.1492919921875E-05
0.633544921875, 1.15264892578125E-05
0.634613037109375, 1.15753173828125E-05
0.63568115234375, 1.1614990234375E-05
0.636749267578125, 1.1663818359375E-05
0.6378173828125, 1.1700439453125E-05
0.638885498046875, 1.1737060546875E-05
0.63995361328125, 1.17828369140625E-05
0.641021728515625, 1.18133544921875E-05
0.64208984375, 1.18560791015625E-05
0.643157958984375, 1.1883544921875E-05
0.64422607421875, 1.1932373046875E-05
0.645294189453125, 1.19537353515625E-05
0.6463623046875, 1.1993408203125E-05
0.647430419921875, 1.201171875E-05
0.64849853515625, 1.20574951171875E-05
0.649566650390625, 1.20697021484375E-05
0.650634765625, 1.2109375E-05
0.651702880859375, 1.21246337890625E-05
0.65277099609375, 1.21612548828125E-05
0.653839111328125, 1.217041015625E-05
0.6549072265625, 1.21978759765625E-05
0.655975341796875, 1.2213134765625E-05
0.65704345703125, 1.22344970703125E-05
0.658111572265625, 1.22467041015625E-05
0.6591796875, 1.2255859375E-05
0.660247802734375, 1.22772216796875E-05
0.66131591796875, 1.22772216796875E-05
0.662384033203125, 1.2286376953125E-05
0.6634521484375, 1.22802734375E-05
0.664520263671875, 1.23046875E-05
0.66558837890625, 1.2286376953125E-05
0.666656494140625, 1.22955322265625E-05
0.667724609375, 1.22772216796875E-05
0.668792724609375, 1.22894287109375E-05
0.66986083984375, 1.22589111328125E-05
0.670928955078125, 1.2255859375E-05
0.6719970703125, 1.22314453125E-05
0.673065185546875, 1.2225341796875E-05
0.67413330078125, 1.2188720703125E-05
0.675201416015625, 1.2164306640625E-05
0.67626953125, 1.21368408203125E-05
0.677337646484375, 1.21063232421875E-05
0.67840576171875, 1.2060546875E-05
0.679473876953125, 1.20147705078125E-05
0.6805419921875, 1.19781494140625E-05
0.681610107421875, 1.19140625E-05
0.68267822265625, 1.1865234375E-05
0.683746337890625, 1.17889404296875E-05
0.684814453125, 1.17431640625E-05
0.685882568359375, 1.16455078125E-05
0.68695068359375, 1.15814208984375E-05
0.688018798828125, 1.1474609375E-05
0.6890869140625, 1.14013671875E-05
0.690155029296875, 1.12762451171875E-05
0.69122314453125, 1.1175537109375E-05
0.692291259765625, 1.1041259765625E-05
0.693359375, 1.092529296875E-05
0.694427490234375, 1.07666015625E-05
0.69549560546875, 1.0614013671875E-05
0.696563720703125, 1.0443115234375E-05
0.6976318359375, 1.02630615234375E-05
0.698699951171875, 1.005859375E-05
0.69976806640625, 9.8358154296875E-06
0.700836181640625, 9.6099853515625E-06
0.701904296875, 9.33837890625E-06
0.702972412109375, 9.0667724609375E-06
0.70404052734375, 8.746337890625E-06
0.705108642578125, 8.447265625E-06
0.7061767578125, 8.06884765625E-06
0.707244873046875, 7.7178955078125E-06
0.70831298828125, 7.31201171875E-06
0.709381103515625, 6.9488525390625E-06
0.71044921875, 6.53076171875E-06
0.711517333984375, 6.16455078125E-06
0.71258544921875, 5.7830810546875E-06
0.713653564453125, 5.45654296875E-06
0.7147216796875, 5.1177978515625E-06
0.715789794921875, 4.83001708984375E-06
0.71685791015625, 4.559326171875E-06
0.717926025390625, 4.32098388671875E-06
0.718994140625, 4.09515380859375E-06
0.720062255859375, 3.8897705078125E-06
0.72113037109375, 3.724365234375E-06
0.722198486328125, 3.54888916015625E-06
0.7232666015625, 3.4124755859375E-06
0.724334716796875, 3.2598876953125E-06
0.72540283203125, 3.17108154296875E-06
0.726470947265625, 3.03436279296875E-06
0.7275390625, 2.95654296875E-06
0.728607177734375, 2.8411865234375E-06
0.72967529296875, 2.79388427734375E-06
0.730743408203125, 2.68798828125E-06
0.7318115234375, 2.64007568359375E-06
0.732879638671875, 2.5579833984375E-06
0.73394775390625, 2.5244140625E-06
0.735015869140625, 2.45147705078125E-06
0.736083984375, 2.4090576171875E-06
0.737152099609375, 2.3638916015625E-06
0.73822021484375, 2.325439453125E-06
0.739288330078125, 2.2833251953125E-06
0.7403564453125, 2.23785400390625E-06
0.741424560546875, 2.22442626953125E-06
0.74249267578125, 2.17620849609375E-06
0.743560791015625, 2.159423828125E-06
0.74462890625, 2.11029052734375E-06
0.745697021484375, 2.1173095703125E-06
0.74676513671875, 2.06329345703125E-06
0.747833251953125, 2.0611572265625E-06
0.7489013671875, 2.0159912109375E-06
0.749969482421875, 2.027587890625E-06
0.75103759765625, 1.97845458984375E-06
0.752105712890625, 1.97723388671875E-06
0.753173828125, 1.9451904296875E-06
0.754241943359375, 1.94915771484375E-06
0.75531005859375, 1.9146728515625E-06
0.756378173828125, 1.904296875E-06
0.7574462890625, 1.89361572265625E-06
0.758514404296875, 1.87957763671875E-06
0.75958251953125, 1.86614990234375E-06
0.760650634765625, 1.84112548828125E-06
0.76171875, 1.85150146484375E-06
0.762786865234375, 1.820068359375E-06
0.76385498046875, 1.82373046875E-06
0.764923095703125, 1.78985595703125E-06
0.7659912109375, 1.81182861328125E-06
0.767059326171875, 1.77276611328125E-06
0.76812744140625, 1.78192138671875E-06
0.769195556640625, 1.75048828125E-06
0.770263671875, 1.77093505859375E-06
0.771331787109375, 1.734619140625E-06
0.77239990234375, 1.74072265625E-06
0.773468017578125, 1.72149658203125E-06
0.7745361328125, 1.7291259765625E-06
0.775604248046875, 1.70654296875E-06
0.77667236328125, 1.700439453125E-06
0.777740478515625, 1.70013427734375E-06
0.77880859375, 1.68853759765625E-06
0.779876708984375, 1.68243408203125E-06
0.78094482421875, 1.66351318359375E-06
0.782012939453125, 1.6802978515625E-06
0.7830810546875, 1.6522216796875E-06
0.784149169921875, 1.6607666015625E-06
0.78521728515625, 1.6326904296875E-06
0.786285400390625, 1.6558837890625E-06
0.787353515625, 1.6229248046875E-06
0.788421630859375, 1.6357421875E-06
0.78948974609375, 1.6094970703125E-06
0.790557861328125, 1.6302490234375E-06
0.7916259765625, 1.59942626953125E-06
0.792694091796875, 1.6082763671875E-06
0.79376220703125, 1.5924072265625E-06
0.794830322265625, 1.600341796875E-06
0.7958984375, 1.58416748046875E-06
0.796966552734375, 1.5777587890625E-06
0.79803466796875, 1.58233642578125E-06
0.799102783203125, 1.5704345703125E-06
0.8001708984375, 1.56951904296875E-06
0.801239013671875, 1.55029296875E-06
0.80230712890625, 1.56951904296875E-06
0.803375244140625, 1.54388427734375E-06
0.804443359375, 1.55487060546875E-06
0.805511474609375, 1.52801513671875E-06
0.80657958984375, 1.553955078125E-06
0.807647705078125, 1.5216064453125E-06
0.8087158203125, 1.536865234375E-06
0.809783935546875, 1.51214599609375E-06
0.81085205078125, 1.53289794921875E-06
0.811920166015625, 1.50726318359375E-06
0.81298828125, 1.51275634765625E-06
0.814056396484375, 1.50421142578125E-06
0.81512451171875, 1.50787353515625E-06
0.816192626953125, 1.495361328125E-06
0.8172607421875, 1.4898681640625E-06
0.818328857421875, 1.4959716796875E-06
0.81939697265625, 1.48406982421875E-06
0.820465087890625, 1.48529052734375E-06
0.821533203125, 1.46759033203125E-06
0.822601318359375, 1.4898681640625E-06
0.82366943359375, 1.46240234375E-06
0.824737548828125, 1.47705078125E-06
0.8258056640625, 1.448974609375E-06
0.826873779296875, 1.4776611328125E-06
0.82794189453125, 1.44561767578125E-06
0.829010009765625, 1.4599609375E-06
0.830078125, 1.44073486328125E-06
0.831146240234375, 1.45782470703125E-06
0.83221435546875, 1.43585205078125E-06
0.833282470703125, 1.44012451171875E-06
0.8343505859375, 1.4349365234375E-06
0.835418701171875, 1.4361572265625E-06
0.83648681640625, 1.42822265625E-06
0.837554931640625, 1.41998291015625E-06
0.838623046875, 1.4312744140625E-06
0.839691162109375, 1.41571044921875E-06
0.84075927734375, 1.42181396484375E-06
0.841827392578125, 1.40167236328125E-06
0.8428955078125, 1.4263916015625E-06
0.843963623046875, 1.397705078125E-06
0.84503173828125, 1.41326904296875E-06
0.846099853515625, 1.3885498046875E-06
0.84716796875, 1.4141845703125E-06
0.848236083984375, 1.38519287109375E-06
0.84930419921875, 1.39892578125E-06
0.850372314453125, 1.38214111328125E-06
0.8514404296875, 1.3970947265625E-06
0.852508544921875, 1.3787841796875E-06
0.85357666015625, 1.38092041015625E-06
0.854644775390625, 1.3800048828125E-06
0.855712890625, 1.3775634765625E-06
0.856781005859375, 1.3739013671875E-06
0.85784912109375, 1.3629150390625E-06
0.858917236328125, 1.3787841796875E-06
0.8599853515625, 1.35955810546875E-06
0.861053466796875, 1.36871337890625E-06
0.86212158203125, 1.348876953125E-06
0.863189697265625, 1.37237548828125E-06
0.8642578125, 1.3458251953125E-06
0.865325927734375, 1.3604736328125E-06
0.86639404296875, 1.33941650390625E-06
0.867462158203125, 1.3616943359375E-06
0.8685302734375, 1.336669921875E-06
0.869598388671875, 1.34735107421875E-06
0.87066650390625, 1.33514404296875E-06
0.871734619140625, 1.346435546875E-06
0.872802734375, 1.3330078125E-06
0.873870849609375, 1.33209228515625E-06
0.87493896484375, 1.334228515625E-06
0.876007080078125, 1.3299560546875E-06
0.8770751953125, 1.32904052734375E-06
0.878143310546875, 1.31622314453125E-06
0.87921142578125, 1.3336181640625E-06
0.880279541015625, 1.3134765625E-06
0.88134765625, 1.324462890625E-06
0.882415771484375, 1.30279541015625E-06
0.88348388671875, 1.32720947265625E-06
0.884552001953125, 1.302490234375E-06
0.8856201171875, 1.31591796875E-06
0.886688232421875, 1.29638671875E-06
0.88775634765625, 1.3177490234375E-06
0.888824462890625, 1.295166015625E-06
0.889892578125, 1.30340576171875E-06
0.890960693359375, 1.295166015625E-06
0.89202880859375, 1.30279541015625E-06
0.893096923828125, 1.29302978515625E-06
0.8941650390625, 1.2884521484375E-06
0.895233154296875, 1.29608154296875E-06
0.89630126953125, 1.2872314453125E-06
0.897369384765625, 1.28936767578125E-06
0.8984375, 1.2750244140625E-06
0.899505615234375, 1.2945556640625E-06
0.90057373046875, 1.27349853515625E-06
0.901641845703125, 1.285400390625E-06
0.9027099609375, 1.2652587890625E-06
0.903778076171875, 1.28936767578125E-06
0.90484619140625, 1.2640380859375E-06
0.905914306640625, 1.278076171875E-06
0.906982421875, 1.2603759765625E-06
0.908050537109375, 1.2786865234375E-06
0.90911865234375, 1.25946044921875E-06
0.910186767578125, 1.26495361328125E-06
0.9112548828125, 1.260986328125E-06
0.912322998046875, 1.26434326171875E-06
0.91339111328125, 1.25762939453125E-06
0.914459228515625, 1.2518310546875E-06
0.91552734375, 1.26129150390625E-06
0.916595458984375, 1.25091552734375E-06
0.91766357421875, 1.25518798828125E-06
0.918731689453125, 1.24053955078125E-06
0.9197998046875, 1.26068115234375E-06
0.920867919921875, 1.239013671875E-06
0.92193603515625, 1.2518310546875E-06
0.923004150390625, 1.231689453125E-06
0.924072265625, 1.2554931640625E-06
0.925140380859375, 1.231689453125E-06
0.92620849609375, 1.24420166015625E-06
0.927276611328125, 1.22955322265625E-06
0.9283447265625, 1.24420166015625E-06
0.929412841796875, 1.22833251953125E-06
0.93048095703125, 1.231689453125E-06
0.931549072265625, 1.23046875E-06
0.9326171875, 1.23138427734375E-06
0.933685302734375, 1.22711181640625E-06
0.93475341796875, 1.2200927734375E-06
0.935821533203125, 1.23199462890625E-06
0.9368896484375, 1.21917724609375E-06
0.937957763671875, 1.22589111328125E-06
0.93902587890625, 1.209716796875E-06
0.940093994140625, 1.23077392578125E-06
0.941162109375, 1.2091064453125E-06
0.942230224609375, 1.2213134765625E-06
0.94329833984375, 1.20330810546875E-06
0.944366455078125, 1.224365234375E-06
0.9454345703125, 1.202392578125E-06
0.946502685546875, 1.21337890625E-06
0.94757080078125, 1.2017822265625E-06
0.948638916015625, 1.21368408203125E-06
0.94970703125, 1.199951171875E-06
0.950775146484375, 1.202392578125E-06
0.95184326171875, 1.202392578125E-06
0.952911376953125, 1.2017822265625E-06
0.9539794921875, 1.1993408203125E-06
0.955047607421875, 1.19171142578125E-06
0.95611572265625, 1.204833984375E-06
0.957183837890625, 1.19049072265625E-06
0.958251953125, 1.19781494140625E-06
0.959320068359375, 1.1810302734375E-06
0.96038818359375, 1.20208740234375E-06
0.961456298828125, 1.18133544921875E-06
0.9625244140625, 1.1932373046875E-06
0.963592529296875, 1.1761474609375E-06
0.96466064453125, 1.19598388671875E-06
0.965728759765625, 1.17584228515625E-06
0.966796875, 1.1859130859375E-06
0.967864990234375, 1.1749267578125E-06
0.96893310546875, 1.1865234375E-06
0.970001220703125, 1.1749267578125E-06
0.9710693359375, 1.1761474609375E-06
0.972137451171875, 1.17706298828125E-06
0.97320556640625, 1.17523193359375E-06
0.974273681640625, 1.17462158203125E-06
0.975341796875, 1.16424560546875E-06
0.976409912109375, 1.17889404296875E-06
0.97747802734375, 1.16363525390625E-06
0.978546142578125, 1.173095703125E-06
0.9796142578125, 1.1566162109375E-06
0.980682373046875, 1.1767578125E-06
0.98175048828125, 1.1566162109375E-06
0.982818603515625, 1.168212890625E-06
0.98388671875, 1.15264892578125E-06
0.984954833984375, 1.17156982421875E-06
0.98602294921875, 1.15264892578125E-06
0.987091064453125, 1.1602783203125E-06
0.9881591796875, 1.15234375E-06
0.989227294921875, 1.16180419921875E-06
0.99029541015625, 1.15081787109375E-06
0.991363525390625, 1.1505126953125E-06
0.992431640625, 1.15478515625E-06
0.993499755859375, 1.1505126953125E-06
0.99456787109375, 1.15081787109375E-06
0.995635986328125, 1.14044189453125E-06
0.9967041015625, 1.1572265625E-06
0.997772216796875, 1.13983154296875E-06
0.99884033203125, 1.14990234375E-06
0.999908447265625, 1.1334228515625E-06
1.0009765625, 1.15447998046875E-06
0.999908447265625, 1.12579345703125E-06
0.99884033203125, 1.13189697265625E-06
0.997772216796875, 1.11175537109375E-06
0.9967041015625, 1.12548828125E-06
0.995635986328125, 1.10260009765625E-06
0.99456787109375, 1.10626220703125E-06
0.993499755859375, 1.097412109375E-06
0.992431640625, 1.10015869140625E-06
0.991363525390625, 1.08917236328125E-06
0.99029541015625, 1.08306884765625E-06
0.989227294921875, 1.087646484375E-06
0.9881591796875, 1.077880859375E-06
0.987091064453125, 1.0784912109375E-06
0.98602294921875, 1.06414794921875E-06
0.984954833984375, 1.0797119140625E-06
0.98388671875, 1.0595703125E-06
0.982818603515625, 1.06842041015625E-06
0.98175048828125, 1.048583984375E-06
0.980682373046875, 1.0687255859375E-06
0.9796142578125, 1.04400634765625E-06
0.978546142578125, 1.05621337890625E-06
0.97747802734375, 1.0394287109375E-06
0.976409912109375, 1.0540771484375E-06
0.975341796875, 1.036376953125E-06
0.974273681640625, 1.03973388671875E-06
0.97320556640625, 1.0357666015625E-06
0.972137451171875, 1.0369873046875E-06
0.9710693359375, 1.0308837890625E-06
0.970001220703125, 1.02447509765625E-06
0.96893310546875, 1.03240966796875E-06
0.967864990234375, 1.02203369140625E-06
0.966796875, 1.02508544921875E-06
0.965728759765625, 1.0113525390625E-06
0.96466064453125, 1.02813720703125E-06
0.963592529296875, 1.0076904296875E-06
0.9625244140625, 1.01898193359375E-06
0.961456298828125, 1.00128173828125E-06
0.96038818359375, 1.02020263671875E-06
0.959320068359375, 9.9884033203125E-07
0.958251953125, 1.0089111328125E-06
0.957183837890625, 9.9639892578125E-07
0.95611572265625, 1.0089111328125E-06
0.955047607421875, 9.942626953125E-07
0.9539794921875, 9.9639892578125E-07
0.952911376953125, 9.9456787109375E-07
0.95184326171875, 9.9517822265625E-07
0.950775146484375, 9.912109375E-07
0.94970703125, 9.8419189453125E-07
0.948638916015625, 9.9395751953125E-07
0.94757080078125, 9.820556640625E-07
0.946502685546875, 9.87548828125E-07
0.9454345703125, 9.72900390625E-07
0.944366455078125, 9.89990234375E-07
0.94329833984375, 9.716796875E-07
0.942230224609375, 9.820556640625E-07
0.941162109375, 9.6588134765625E-07
0.940093994140625, 9.8388671875E-07
0.93902587890625, 9.6466064453125E-07
0.937957763671875, 9.7381591796875E-07
0.9368896484375, 9.6221923828125E-07
0.935821533203125, 9.7412109375E-07
0.93475341796875, 9.6099853515625E-07
0.933685302734375, 9.6282958984375E-07
0.9326171875, 9.63134765625E-07
0.931549072265625, 9.6160888671875E-07
0.93048095703125, 9.5947265625E-07
0.929412841796875, 9.50927734375E-07
0.9283447265625, 9.6405029296875E-07
0.927276611328125, 9.4970703125E-07
0.92620849609375, 9.5672607421875E-07
0.925140380859375, 9.4146728515625E-07
0.924072265625, 9.6099853515625E-07
0.923004150390625, 9.4146728515625E-07
0.92193603515625, 9.5184326171875E-07
0.920867919921875, 9.368896484375E-07
0.9197998046875, 9.5489501953125E-07
0.918731689453125, 9.356689453125E-07
0.91766357421875, 9.442138671875E-07
0.916595458984375, 9.344482421875E-07
0.91552734375, 9.4512939453125E-07
0.914459228515625, 9.3231201171875E-07
0.91339111328125, 9.33837890625E-07
0.912322998046875, 9.3658447265625E-07
0.9112548828125, 9.3353271484375E-07
0.910186767578125, 9.3353271484375E-07
0.90911865234375, 9.2315673828125E-07
0.908050537109375, 9.368896484375E-07
0.906982421875, 9.228515625E-07
0.905914306640625, 9.3109130859375E-07
0.90484619140625, 9.1552734375E-07
0.903778076171875, 9.3536376953125E-07
0.9027099609375, 9.149169921875E-07
0.901641845703125, 9.26513671875E-07
0.90057373046875, 9.1033935546875E-07
0.899505615234375, 9.283447265625E-07
0.8984375, 9.1033935546875E-07
0.897369384765625, 9.1766357421875E-07
0.89630126953125, 9.112548828125E-07
0.895233154296875, 9.1827392578125E-07
0.8941650390625, 9.0911865234375E-07
0.893096923828125, 9.08203125E-07
0.89202880859375, 9.1278076171875E-07
0.890960693359375, 9.0850830078125E-07
0.889892578125, 9.0850830078125E-07
0.888824462890625, 8.990478515625E-07
0.88775634765625, 9.1400146484375E-07
0.886688232421875, 8.9813232421875E-07
0.8856201171875, 9.075927734375E-07
0.884552001953125, 8.9111328125E-07
0.88348388671875, 9.11865234375E-07
0.882415771484375, 8.905029296875E-07
0.88134765625, 9.027099609375E-07
0.880279541015625, 8.8836669921875E-07
0.87921142578125, 9.04541015625E-07
0.878143310546875, 8.8836669921875E-07
0.8770751953125, 8.941650390625E-07
0.876007080078125, 8.892822265625E-07
0.87493896484375, 8.953857421875E-07
0.873870849609375, 8.880615234375E-07
0.872802734375, 8.8470458984375E-07
0.871734619140625, 8.9202880859375E-07
0.87066650390625, 8.8470458984375E-07
0.869598388671875, 8.8775634765625E-07
0.8685302734375, 8.7646484375E-07
0.867462158203125, 8.929443359375E-07
0.86639404296875, 8.7554931640625E-07
0.865325927734375, 8.8623046875E-07
0.8642578125, 8.7005615234375E-07
0.863189697265625, 8.905029296875E-07
0.86212158203125, 8.7005615234375E-07
0.861053466796875, 8.8165283203125E-07
0.8599853515625, 8.6822509765625E-07
0.858917236328125, 8.831787109375E-07
0.85784912109375, 8.6822509765625E-07
0.856781005859375, 8.734130859375E-07
0.855712890625, 8.7005615234375E-07
0.854644775390625, 8.7371826171875E-07
0.85357666015625, 8.6761474609375E-07
0.852508544921875, 8.6395263671875E-07
0.8514404296875, 8.7310791015625E-07
0.850372314453125, 8.636474609375E-07
0.84930419921875, 8.697509765625E-07
0.848236083984375, 8.5662841796875E-07
0.84716796875, 8.7432861328125E-07
0.846099853515625, 8.5662841796875E-07
0.84503173828125, 8.673095703125E-07
0.843963623046875, 8.5174560546875E-07
0.8428955078125, 8.7158203125E-07
0.841827392578125, 8.514404296875E-07
0.84075927734375, 8.6334228515625E-07
0.839691162109375, 8.50830078125E-07
0.838623046875, 8.6456298828125E-07
0.837554931640625, 8.50830078125E-07
0.83648681640625, 8.5418701171875E-07
0.835418701171875, 8.544921875E-07
0.8343505859375, 8.538818359375E-07
0.833282470703125, 8.526611328125E-07
0.83221435546875, 8.447265625E-07
0.831146240234375, 8.5784912109375E-07
0.830078125, 8.447265625E-07
0.829010009765625, 8.5174560546875E-07
0.82794189453125, 8.3831787109375E-07
0.826873779296875, 8.5723876953125E-07
0.8258056640625, 8.3831787109375E-07
0.824737548828125, 8.4991455078125E-07
0.82366943359375, 8.3404541015625E-07
0.822601318359375, 8.53271484375E-07
0.821533203125, 8.3404541015625E-07
0.820465087890625, 8.4442138671875E-07
0.81939697265625, 8.3465576171875E-07
0.818328857421875, 8.453369140625E-07
0.8172607421875, 8.3465576171875E-07
0.816192626953125, 8.355712890625E-07
0.81512451171875, 8.380126953125E-07
0.814056396484375, 8.3587646484375E-07
0.81298828125, 8.355712890625E-07
0.811920166015625, 8.2763671875E-07
0.81085205078125, 8.4136962890625E-07
0.809783935546875, 8.270263671875E-07
0.8087158203125, 8.3587646484375E-07
0.807647705078125, 8.209228515625E-07
0.80657958984375, 8.4075927734375E-07
0.805511474609375, 8.209228515625E-07
0.804443359375, 8.331298828125E-07
0.803375244140625, 8.1817626953125E-07
0.80230712890625, 8.36181640625E-07
0.801239013671875, 8.19091796875E-07
0.8001708984375, 8.2672119140625E-07
0.799102783203125, 8.2061767578125E-07
0.79803466796875, 8.270263671875E-07
0.796966552734375, 8.197021484375E-07
0.7958984375, 8.1817626953125E-07
0.794830322265625, 8.233642578125E-07
0.79376220703125, 8.19091796875E-07
0.792694091796875, 8.209228515625E-07
0.7916259765625, 8.111572265625E-07
0.790557861328125, 8.258056640625E-07
0.78948974609375, 8.1085205078125E-07
0.788421630859375, 8.209228515625E-07
0.787353515625, 8.0535888671875E-07
0.786285400390625, 8.251953125E-07
0.78521728515625, 8.0535888671875E-07
0.784149169921875, 8.1756591796875E-07
0.7830810546875, 8.0413818359375E-07
0.782012939453125, 8.197021484375E-07
0.78094482421875, 8.0535888671875E-07
0.779876708984375, 8.1024169921875E-07
0.77880859375, 8.06884765625E-07
0.777740478515625, 8.1085205078125E-07
0.77667236328125, 8.056640625E-07
0.775604248046875, 8.026123046875E-07
0.7745361328125, 8.1024169921875E-07
0.773468017578125, 8.026123046875E-07
0.77239990234375, 8.0657958984375E-07
0.771331787109375, 7.9559326171875E-07
0.770263671875, 8.1207275390625E-07
0.769195556640625, 7.9498291015625E-07
0.76812744140625, 8.062744140625E-07
0.767059326171875, 7.9071044921875E-07
0.7659912109375, 8.0963134765625E-07
0.764923095703125, 7.916259765625E-07
0.76385498046875, 8.013916015625E-07
0.762786865234375, 7.9010009765625E-07
0.76171875, 8.038330078125E-07
0.760650634765625, 7.9132080078125E-07
0.75958251953125, 7.94677734375E-07
0.758514404296875, 7.9315185546875E-07
0.7574462890625, 7.952880859375E-07
0.756378173828125, 7.9132080078125E-07
0.75531005859375, 7.867431640625E-07
0.754241943359375, 7.958984375E-07
0.753173828125, 7.8704833984375E-07
0.752105712890625, 7.92236328125E-07
0.75103759765625, 7.7972412109375E-07
0.749969482421875, 7.9620361328125E-07
0.7489013671875, 7.8033447265625E-07
0.747833251953125, 7.8948974609375E-07
0.74676513671875, 7.7606201171875E-07
0.745697021484375, 7.9315185546875E-07
0.74462890625, 7.757568359375E-07
0.743560791015625, 7.8460693359375E-07
0.74249267578125, 7.7484130859375E-07
0.741424560546875, 7.8704833984375E-07
0.7403564453125, 7.7484130859375E-07
0.739288330078125, 7.769775390625E-07
0.73822021484375, 7.763671875E-07
0.737152099609375, 7.77587890625E-07
0.736083984375, 7.745361328125E-07
0.735015869140625, 7.684326171875E-07
0.73394775390625, 7.7850341796875E-07
0.732879638671875, 7.67822265625E-07
0.7318115234375, 7.733154296875E-07
0.730743408203125, 7.6202392578125E-07
0.72967529296875, 7.769775390625E-07
0.728607177734375, 7.6141357421875E-07
0.7275390625, 7.6904296875E-07
0.726470947265625, 7.5653076171875E-07
0.72540283203125, 7.71484375E-07
0.724334716796875, 7.550048828125E-07
0.7232666015625, 7.6263427734375E-07
0.722198486328125, 7.5439453125E-07
0.72113037109375, 7.623291015625E-07
0.720062255859375, 7.525634765625E-07
0.718994140625, 7.525634765625E-07
0.717926025390625, 7.5347900390625E-07
0.71685791015625, 7.51953125E-07
0.715789794921875, 7.4920654296875E-07
0.7147216796875, 7.421875E-07
0.713653564453125, 7.5103759765625E-07
0.71258544921875, 7.403564453125E-07
0.711517333984375, 7.4462890625E-07
0.71044921875, 7.32421875E-07
0.709381103515625, 7.4615478515625E-07
0.70831298828125, 7.293701171875E-07
0.707244873046875, 7.3760986328125E-07
0.7061767578125, 7.23876953125E-07
0.705108642578125, 7.3638916015625E-07
0.70404052734375, 7.208251953125E-07
0.702972412109375, 7.2540283203125E-07
0.701904296875, 7.183837890625E-07
0.700836181640625, 7.23876953125E-07
0.69976806640625, 7.14111328125E-07
0.698699951171875, 7.1197509765625E-07
0.6976318359375, 7.1136474609375E-07
0.696563720703125, 7.080078125E-07
0.69549560546875, 7.0465087890625E-07
0.694427490234375, 6.9610595703125E-07
0.693359375, 7.03125E-07
0.692291259765625, 6.903076171875E-07
0.69122314453125, 6.9305419921875E-07
0.690155029296875, 6.793212890625E-07
0.6890869140625, 6.903076171875E-07
0.688018798828125, 6.732177734375E-07
0.68695068359375, 6.77490234375E-07
0.685882568359375, 6.6314697265625E-07
0.684814453125, 6.7230224609375E-07
0.683746337890625, 6.5673828125E-07
0.68267822265625, 6.5704345703125E-07
0.681610107421875, 6.4788818359375E-07
0.6805419921875, 6.4971923828125E-07
0.679473876953125, 6.378173828125E-07
0.67840576171875, 6.329345703125E-07
0.677337646484375, 6.31103515625E-07
0.67626953125, 6.2255859375E-07
0.675201416015625, 6.1737060546875E-07
0.67413330078125, 6.0546875E-07
0.673065185546875, 6.09130859375E-07
0.6719970703125, 5.9356689453125E-07
0.670928955078125, 5.9173583984375E-07
0.66986083984375, 5.76171875E-07
0.668792724609375, 5.8135986328125E-07
0.667724609375, 5.6182861328125E-07
0.666656494140625, 5.615234375E-07
0.66558837890625, 5.4473876953125E-07
0.664520263671875, 5.4718017578125E-07
0.6634521484375, 5.279541015625E-07
0.662384033203125, 5.23681640625E-07
0.66131591796875, 5.1239013671875E-07
0.660247802734375, 5.059814453125E-07
0.6591796875, 4.9163818359375E-07
0.658111572265625, 4.80987548828125E-07
0.65704345703125, 4.7406005859375E-07
0.655975341796875, 4.60205078125E-07
0.6549072265625, 4.49615478515625E-07
0.653839111328125, 4.3145751953125E-07
0.65277099609375, 4.28558349609375E-07
0.651702880859375, 4.0765380859375E-07
0.650634765625, 3.9971923828125E-07
0.649566650390625, 3.7945556640625E-07
0.64849853515625, 3.758544921875E-07
0.647430419921875, 3.525390625E-07
0.6463623046875, 3.4423828125E-07
0.645294189453125, 3.22509765625E-07
0.64422607421875, 3.16192626953125E-07
0.643157958984375, 2.9302978515625E-07
0.64208984375, 2.7960205078125E-07
0.641021728515625, 2.6129150390625E-07
0.63995361328125, 2.4700927734375E-07
0.638885498046875, 2.2705078125E-07
0.6378173828125, 2.08221435546875E-07
0.636749267578125, 1.93023681640625E-07
0.63568115234375, 1.71600341796875E-07
0.634613037109375, 1.53839111328125E-07
0.633544921875, 1.29425048828125E-07
0.632476806640625, 1.16607666015625E-07
0.63140869140625, 8.9599609375E-08
0.630340576171875, 7.26318359375E-08
0.6292724609375, 4.4281005859375E-08
0.628204345703125, 3.0694580078125E-08
0.62713623046875, 1.03759765625E-10
0.626068115234375, -1.82708740234375E-08
0.625, -4.7149658203125E-08
0.623931884765625, -6.67724609375E-08
0.62286376953125, -9.5489501953125E-08
0.621795654296875, -1.18560791015625E-07
0.6207275390625, -1.44622802734375E-07
0.619659423828125, -1.695556640625E-07
0.61859130859375, -1.978759765625E-07
0.617523193359375, -2.26226806640625E-07
0.616455078125, -2.5164794921875E-07
0.615386962890625, -2.81982421875E-07
0.61431884765625, -3.09295654296875E-07
0.613250732421875, -3.419189453125E-07
0.6121826171875, -3.6712646484375E-07
0.611114501953125, -4.02435302734375E-07
0.61004638671875, -4.3011474609375E-07
0.608978271484375, -4.66094970703125E-07
0.60791015625, -4.92584228515625E-07
0.606842041015625, -5.2923583984375E-07
0.60577392578125, -5.6134033203125E-07
0.604705810546875, -5.9613037109375E-07
0.6036376953125, -6.2762451171875E-07
0.602569580078125, -6.62841796875E-07
0.60150146484375, -6.982421875E-07
0.600433349609375, -7.342529296875E-07
0.599365234375, -7.6904296875E-07
0.598297119140625, -8.0718994140625E-07
0.59722900390625, -8.4564208984375E-07
0.596160888671875, -8.8165283203125E-07
0.5950927734375, -9.2193603515625E-07
0.594024658203125, -9.600830078125E-07
0.59295654296875, -1.0015869140625E-06
0.591888427734375, -1.03759765625E-06
0.5908203125, -1.08154296875E-06
0.589752197265625, -1.12091064453125E-06
0.58868408203125, -1.16424560546875E-06
0.587615966796875, -1.20391845703125E-06
0.5865478515625, -1.248779296875E-06
0.585479736328125, -1.29119873046875E-06
0.58441162109375, -1.33544921875E-06
0.583343505859375, -1.37603759765625E-06
0.582275390625, -1.42242431640625E-06
0.581207275390625, -1.46697998046875E-06
0.58013916015625, -1.5118408203125E-06
0.579071044921875, -1.55731201171875E-06
0.5780029296875, -1.6046142578125E-06
0.576934814453125, -1.651611328125E-06
0.57586669921875, -1.69952392578125E-06
0.574798583984375, -1.74713134765625E-06
0.57373046875, -1.79534912109375E-06
0.572662353515625, -1.844482421875E-06
0.57159423828125, -1.8927001953125E-06
0.570526123046875, -1.94305419921875E-06
0.5694580078125, -1.9940185546875E-06
0.568389892578125, -2.04437255859375E-06
0.56732177734375, -2.09381103515625E-06
0.566253662109375, -2.1466064453125E-06
0.565185546875, -2.19818115234375E-06
0.564117431640625, -2.2515869140625E-06
0.56304931640625, -2.30255126953125E-06
0.561981201171875, -2.35687255859375E-06
0.5609130859375, -2.40966796875E-06
0.559844970703125, -2.464599609375E-06
0.55877685546875, -2.51739501953125E-06
0.557708740234375, -2.5732421875E-06
0.556640625, -2.62725830078125E-06
0.555572509765625, -2.68402099609375E-06
0.55450439453125, -2.7374267578125E-06
0.553436279296875, -2.79541015625E-06
0.5523681640625, -2.8509521484375E-06
0.551300048828125, -2.90924072265625E-06
0.55023193359375, -2.96478271484375E-06
0.549163818359375, -3.02398681640625E-06
0.548095703125, -3.08135986328125E-06
0.547027587890625, -3.14056396484375E-06
0.54595947265625, -3.19854736328125E-06
0.544891357421875, -3.25714111328125E-06
0.5438232421875, -3.3154296875E-06
0.542755126953125, -3.37249755859375E-06
0.54168701171875, -3.4344482421875E-06
0.540618896484375, -3.4918212890625E-06
0.53955078125, -3.55499267578125E-06
0.538482666015625, -3.61297607421875E-06
0.53741455078125, -3.67706298828125E-06
0.536346435546875, -3.73443603515625E-06
0.5352783203125, -3.80035400390625E-06
0.534210205078125, -3.8580322265625E-06
0.53314208984375, -3.92333984375E-06
0.532073974609375, -3.983154296875E-06
0.531005859375, -4.04876708984375E-06
0.529937744140625, -4.1082763671875E-06
0.52886962890625, -4.17327880859375E-06
0.527801513671875, -4.23675537109375E-06
0.5267333984375, -4.30023193359375E-06
0.525665283203125, -4.36431884765625E-06
0.52459716796875, -4.42779541015625E-06
0.523529052734375, -4.49432373046875E-06
0.5224609375, -4.55596923828125E-06
0.521392822265625, -4.62158203125E-06
0.52032470703125, -4.68414306640625E-06
0.519256591796875, -4.75341796875E-06
0.5181884765625, -4.81414794921875E-06
0.517120361328125, -4.88250732421875E-06
0.51605224609375, -4.94476318359375E-06
0.514984130859375, -5.01617431640625E-06
0.513916015625, -5.07720947265625E-06
0.512847900390625, -5.146484375E-06
0.51177978515625, -5.20965576171875E-06
0.510711669921875, -5.2789306640625E-06
0.5096435546875, -5.34271240234375E-06
0.508575439453125, -5.41046142578125E-06
0.50750732421875, -5.47760009765625E-06
0.506439208984375, -5.54443359375E-06
0.50537109375, -5.61126708984375E-06
0.504302978515625, -5.6744384765625E-06
0.50323486328125, -5.7452392578125E-06
0.502166748046875, -5.809326171875E-06
0.5010986328125, -5.87921142578125E-06
0.500030517578125, -5.94207763671875E-06
0.49896240234375, -6.016845703125E-06
0.497894287109375, -6.0760498046875E-06
0.496826171875, -6.1492919921875E-06
0.495758056640625, -6.2103271484375E-06
0.49468994140625, -6.2835693359375E-06
0.493621826171875, -6.3446044921875E-06
0.4925537109375, -6.4178466796875E-06
0.491485595703125, -6.48193359375E-06
0.49041748046875, -6.55517578125E-06
0.489349365234375, -6.6192626953125E-06
0.48828125, -6.689453125E-06
0.487213134765625, -6.756591796875E-06
0.48614501953125, -6.82373046875E-06
0.485076904296875, -6.890869140625E-06
0.4840087890625, -6.9580078125E-06
0.482940673828125, -7.03125E-06
0.48187255859375, -7.09228515625E-06
0.480804443359375, -7.1624755859375E-06
0.479736328125, -7.2265625E-06
0.478668212890625, -7.3028564453125E-06
0.47760009765625, -7.36083984375E-06
0.476531982421875, -7.43408203125E-06
0.4754638671875, -7.4981689453125E-06
0.474395751953125, -7.5714111328125E-06
0.47332763671875, -7.6324462890625E-06
0.472259521484375, -7.7056884765625E-06
0.47119140625, -7.769775390625E-06
0.470123291015625, -7.8399658203125E-06
0.46905517578125, -7.9010009765625E-06
0.467987060546875, -7.97119140625E-06
0.4669189453125, -8.0413818359375E-06
0.465850830078125, -8.1024169921875E-06
0.46478271484375, -8.1695556640625E-06
0.463714599609375, -8.233642578125E-06
0.462646484375, -8.3038330078125E-06
0.461578369140625, -8.3648681640625E-06
0.46051025390625, -8.43505859375E-06
0.459442138671875, -8.4930419921875E-06
0.4583740234375, -8.5693359375E-06
0.457305908203125, -8.624267578125E-06
0.45623779296875, -8.6944580078125E-06
0.455169677734375, -8.75244140625E-06
0.4541015625, -8.82568359375E-06
0.453033447265625, -8.880615234375E-06
0.45196533203125, -8.9508056640625E-06
0.450897216796875, -9.0118408203125E-06
0.4498291015625, -9.0789794921875E-06
0.448760986328125, -9.136962890625E-06
0.44769287109375, -9.2010498046875E-06
0.446624755859375, -9.26513671875E-06
0.445556640625, -9.3231201171875E-06
0.444488525390625, -9.3841552734375E-06
0.44342041015625, -9.442138671875E-06
0.442352294921875, -9.5123291015625E-06
0.4412841796875, -9.564208984375E-06
0.440216064453125, -9.6282958984375E-06
0.43914794921875, -9.68017578125E-06
0.438079833984375, -9.75341796875E-06
0.43701171875, -9.80224609375E-06
0.435943603515625, -9.8663330078125E-06
0.43487548828125, -9.918212890625E-06
0.433807373046875, -9.9853515625E-06
0.4327392578125, -1.00311279296875E-05
0.431671142578125, -1.00921630859375E-05
0.43060302734375, -1.014404296875E-05
0.429534912109375, -1.0205078125E-05
0.428466796875, -1.025390625E-05
0.427398681640625, -1.0308837890625E-05
0.42633056640625, -1.03668212890625E-05
0.425262451171875, -1.04156494140625E-05
0.4241943359375, -1.04705810546875E-05
0.423126220703125, -1.05133056640625E-05
0.42205810546875, -1.0577392578125E-05
0.420989990234375, -1.06170654296875E-05
0.419921875, -1.0675048828125E-05
0.418853759765625, -1.07147216796875E-05
0.41778564453125, -1.07757568359375E-05
0.416717529296875, -1.08123779296875E-05
0.4156494140625, -1.08673095703125E-05
0.414581298828125, -1.09039306640625E-05
0.41351318359375, -1.09588623046875E-05
0.412445068359375, -1.09893798828125E-05
0.411376953125, -1.1041259765625E-05
0.410308837890625, -1.10809326171875E-05
0.40924072265625, -1.1126708984375E-05
0.408172607421875, -1.1163330078125E-05
0.4071044921875, -1.12030029296875E-05
0.406036376953125, -1.1248779296875E-05
0.40496826171875, -1.1279296875E-05
0.403900146484375, -1.13189697265625E-05
0.40283203125, -1.13494873046875E-05
0.401763916015625, -1.1395263671875E-05
0.40069580078125, -1.14166259765625E-05
0.399627685546875, -1.1456298828125E-05
0.3985595703125, -1.1474609375E-05
0.397491455078125, -1.15203857421875E-05
0.39642333984375, -1.15325927734375E-05
0.395355224609375, -1.1572265625E-05
0.394287109375, -1.15875244140625E-05
0.393218994140625, -1.16241455078125E-05
0.39215087890625, -1.16363525390625E-05
0.391082763671875, -1.16607666015625E-05
0.3900146484375, -1.16790771484375E-05
0.388946533203125, -1.1700439453125E-05
0.38787841796875, -1.17095947265625E-05
0.386810302734375, -1.17218017578125E-05
0.3857421875, -1.17431640625E-05
0.384674072265625, -1.17462158203125E-05
0.38360595703125, -1.17584228515625E-05
0.382537841796875, -1.175537109375E-05
0.3814697265625, -1.17767333984375E-05
0.380401611328125, -1.17645263671875E-05
0.37933349609375, -1.1773681640625E-05
0.378265380859375, -1.1761474609375E-05
0.377197265625, -1.1773681640625E-05
0.376129150390625, -1.1749267578125E-05
0.37506103515625, -1.1749267578125E-05
0.373992919921875, -1.17279052734375E-05
0.3729248046875, -1.17279052734375E-05
0.371856689453125, -1.16973876953125E-05
0.37078857421875, -1.16790771484375E-05
0.369720458984375, -1.16546630859375E-05
0.36865234375, -1.16302490234375E-05
0.367584228515625, -1.15966796875E-05
0.36651611328125, -1.15570068359375E-05
0.365447998046875, -1.15264892578125E-05
0.3643798828125, -1.14776611328125E-05
0.363311767578125, -1.14349365234375E-05
0.36224365234375, -1.1370849609375E-05
0.361175537109375, -1.13311767578125E-05
0.360107421875, -1.12518310546875E-05
0.359039306640625, -1.11968994140625E-05
0.35797119140625, -1.11083984375E-05
0.356903076171875, -1.10504150390625E-05
0.3558349609375, -1.09466552734375E-05
0.354766845703125, -1.08673095703125E-05
0.35369873046875, -1.0760498046875E-05
0.352630615234375, -1.06658935546875E-05
0.3515625, -1.05377197265625E-05
0.350494384765625, -1.04156494140625E-05
0.34942626953125, -1.02783203125E-05
0.348358154296875, -1.01348876953125E-05
0.3472900390625, -9.9761962890625E-06
0.346221923828125, -9.80224609375E-06
0.34515380859375, -9.6282958984375E-06
0.344085693359375, -9.4207763671875E-06
0.343017578125, -9.21630859375E-06
0.341949462890625, -8.97216796875E-06
0.34088134765625, -8.7432861328125E-06
0.339813232421875, -8.4625244140625E-06
0.3387451171875, -8.1878662109375E-06
0.337677001953125, -7.87353515625E-06
0.33660888671875, -7.574462890625E-06
0.335540771484375, -7.2265625E-06
0.33447265625, -6.9000244140625E-06
0.333404541015625, -6.5460205078125E-06
0.33233642578125, -6.219482421875E-06
0.331268310546875, -5.87158203125E-06
0.3302001953125, -5.5572509765625E-06
0.329132080078125, -5.2490234375E-06
0.32806396484375, -4.9652099609375E-06
0.326995849609375, -4.69329833984375E-06
0.325927734375, -4.43817138671875E-06
0.324859619140625, -4.21539306640625E-06
0.32379150390625, -3.9935302734375E-06
0.322723388671875, -3.8006591796875E-06
0.3216552734375, -3.60748291015625E-06
0.320587158203125, -3.4552001953125E-06
0.31951904296875, -3.2861328125E-06
0.318450927734375, -3.1524658203125E-06
0.3173828125, -3.0059814453125E-06
0.316314697265625, -2.90435791015625E-06
0.31524658203125, -2.77374267578125E-06
0.314178466796875, -2.681884765625E-06
0.3131103515625, -2.5726318359375E-06
0.312042236328125, -2.4993896484375E-06
0.31097412109375, -2.403564453125E-06
0.309906005859375, -2.33245849609375E-06
0.308837890625, -2.25860595703125E-06
0.307769775390625, -2.197265625E-06
0.30670166015625, -2.13165283203125E-06
0.305633544921875, -2.0697021484375E-06
0.3045654296875, -2.025146484375E-06
0.303497314453125, -1.96807861328125E-06
0.30242919921875, -1.92596435546875E-06
0.301361083984375, -1.8707275390625E-06
0.30029296875, -1.846923828125E-06
0.299224853515625, -1.79229736328125E-06
0.29815673828125, -1.7669677734375E-06
0.297088623046875, -1.71875E-06
0.2960205078125, -1.70501708984375E-06
0.294952392578125, -1.65802001953125E-06
0.29388427734375, -1.639404296875E-06
0.292816162109375, -1.6015625E-06
0.291748046875, -1.58935546875E-06
0.290679931640625, -1.5533447265625E-06
0.28961181640625, -1.5350341796875E-06
0.288543701171875, -1.51092529296875E-06
0.2874755859375, -1.49322509765625E-06
0.286407470703125, -1.470947265625E-06
0.28533935546875, -1.44744873046875E-06
0.284271240234375, -1.43890380859375E-06
0.283203125, -1.41387939453125E-06
0.282135009765625, -1.40380859375E-06
0.28106689453125, -1.37542724609375E-06
0.279998779296875, -1.37725830078125E-06
0.2789306640625, -1.34765625E-06
0.277862548828125, -1.3446044921875E-06
0.27679443359375, -1.3177490234375E-06
0.275726318359375, -1.3226318359375E-06
0.274658203125, -1.295166015625E-06
0.273590087890625, -1.29241943359375E-06
0.27252197265625, -1.27227783203125E-06
0.271453857421875, -1.27166748046875E-06
0.2703857421875, -1.2518310546875E-06
0.269317626953125, -1.24420166015625E-06
0.26824951171875, -1.2353515625E-06
0.267181396484375, -1.22589111328125E-06
0.26611328125, -1.21612548828125E-06
0.265045166015625, -1.2005615234375E-06
0.26397705078125, -1.2030029296875E-06
0.262908935546875, -1.18499755859375E-06
0.2618408203125, -1.18438720703125E-06
0.260772705078125, -1.1639404296875E-06
0.25970458984375, -1.17279052734375E-06
0.258636474609375, -1.1505126953125E-06
0.257568359375, -1.1541748046875E-06
0.256500244140625, -1.13372802734375E-06
0.25543212890625, -1.1431884765625E-06
0.254364013671875, -1.1224365234375E-06
0.2532958984375, -1.12335205078125E-06
0.252227783203125, -1.11083984375E-06
0.25115966796875, -1.112060546875E-06
0.250091552734375, -1.09954833984375E-06
0.2490234375, -1.09283447265625E-06
0.247955322265625, -1.09130859375E-06
0.24688720703125, -1.08306884765625E-06
0.245819091796875, -1.0791015625E-06
0.2447509765625, -1.06658935546875E-06
0.243682861328125, -1.07330322265625E-06
0.24261474609375, -1.05743408203125E-06
0.241546630859375, -1.0601806640625E-06
0.240478515625, -1.04278564453125E-06
0.239410400390625, -1.0546875E-06
0.23834228515625, -1.03485107421875E-06
0.237274169921875, -1.04034423828125E-06
0.2362060546875, -1.024169921875E-06
0.235137939453125, -1.03302001953125E-06
0.23406982421875, -1.016845703125E-06
0.233001708984375, -1.01837158203125E-06
0.23193359375, -1.00982666015625E-06
0.230865478515625, -1.01043701171875E-06
0.22979736328125, -1.00189208984375E-06
0.228729248046875, -9.9639892578125E-07
0.2276611328125, -9.9822998046875E-07
0.226593017578125, -9.8907470703125E-07
0.22552490234375, -9.893798828125E-07
0.224456787109375, -9.765625E-07
0.223388671875, -9.85107421875E-07
0.222320556640625, -9.70458984375E-07
0.22125244140625, -9.7503662109375E-07
0.220184326171875, -9.5977783203125E-07
0.2191162109375, -9.7076416015625E-07
0.218048095703125, -9.5458984375E-07
0.21697998046875, -9.5977783203125E-07
0.215911865234375, -9.47265625E-07
0.21484375, -9.5489501953125E-07
0.213775634765625, -9.4207763671875E-07
0.21270751953125, -9.4268798828125E-07
0.211639404296875, -9.3719482421875E-07
0.2105712890625, -9.3719482421875E-07
0.209503173828125, -9.320068359375E-07
0.20843505859375, -9.2529296875E-07
0.207366943359375, -9.28955078125E-07
0.206298828125, -9.2071533203125E-07
0.205230712890625, -9.2193603515625E-07
0.20416259765625, -9.100341796875E-07
0.203094482421875, -9.19189453125E-07
0.2020263671875, -9.0606689453125E-07
0.200958251953125, -9.1064453125E-07
0.19989013671875, -8.97216796875E-07
0.198822021484375, -9.0789794921875E-07
0.19775390625, -8.9385986328125E-07
0.196685791015625, -8.9752197265625E-07
0.19561767578125, -8.8836669921875E-07
0.194549560546875, -8.941650390625E-07
0.1934814453125, -8.8470458984375E-07
0.192413330078125, -8.831787109375E-07
0.19134521484375, -8.8134765625E-07
0.190277099609375, -8.7921142578125E-07
0.189208984375, -8.7615966796875E-07
0.188140869140625, -8.697509765625E-07
0.18707275390625, -8.746337890625E-07
0.186004638671875, -8.660888671875E-07
0.1849365234375, -8.6822509765625E-07
0.183868408203125, -8.575439453125E-07
0.18280029296875, -8.6700439453125E-07
0.181732177734375, -8.538818359375E-07
0.1806640625, -8.5906982421875E-07
0.179595947265625, -8.4747314453125E-07
0.17852783203125, -8.5723876953125E-07
0.177459716796875, -8.4503173828125E-07
0.1763916015625, -8.4747314453125E-07
0.175323486328125, -8.4136962890625E-07
0.17425537109375, -8.4503173828125E-07
0.173187255859375, -8.3740234375E-07
0.172119140625, -8.355712890625E-07
0.171051025390625, -8.3526611328125E-07
0.16998291015625, -8.3282470703125E-07
0.168914794921875, -8.3038330078125E-07
0.1678466796875, -8.2427978515625E-07
0.166778564453125, -8.294677734375E-07
0.16571044921875, -8.2122802734375E-07
0.164642333984375, -8.2427978515625E-07
0.16357421875, -8.14208984375E-07
0.162506103515625, -8.2305908203125E-07
0.16143798828125, -8.1146240234375E-07
0.160369873046875, -8.1573486328125E-07
0.1593017578125, -8.06884765625E-07
0.158233642578125, -8.14208984375E-07
0.15716552734375, -8.0413818359375E-07
0.156097412109375, -8.062744140625E-07
0.155029296875, -8.0108642578125E-07
0.153961181640625, -8.038330078125E-07
0.15289306640625, -7.977294921875E-07
0.151824951171875, -7.9559326171875E-07
0.1507568359375, -7.965087890625E-07
0.149688720703125, -7.9345703125E-07
0.14862060546875, -7.9254150390625E-07
0.147552490234375, -7.861328125E-07
0.146484375, -7.9193115234375E-07
0.145416259765625, -7.843017578125E-07
0.14434814453125, -7.8643798828125E-07
0.143280029296875, -7.781982421875E-07
0.1422119140625, -7.8582763671875E-07
0.141143798828125, -7.7606201171875E-07
0.14007568359375, -7.80029296875E-07
0.139007568359375, -7.71484375E-07
0.137939453125, -7.7880859375E-07
0.136871337890625, -7.6904296875E-07
0.13580322265625, -7.720947265625E-07
0.134735107421875, -7.67822265625E-07
0.1336669921875, -7.6995849609375E-07
0.132598876953125, -7.647705078125E-07
0.13153076171875, -7.623291015625E-07
0.130462646484375, -7.647705078125E-07
0.12939453125, -7.60498046875E-07
0.128326416015625, -7.60498046875E-07
0.12725830078125, -7.5469970703125E-07
0.126190185546875, -7.6019287109375E-07
0.1251220703125, -7.5286865234375E-07
0.124053955078125, -7.55615234375E-07
0.12298583984375, -7.4737548828125E-07
0.121917724609375, -7.5531005859375E-07
0.120849609375, -7.4554443359375E-07
0.119781494140625, -7.501220703125E-07
0.11871337890625, -7.421875E-07
0.117645263671875, -7.489013671875E-07
0.1165771484375, -7.403564453125E-07
0.115509033203125, -7.427978515625E-07
0.11444091796875, -7.3883056640625E-07
0.113372802734375, -7.4127197265625E-07
0.1123046875, -7.366943359375E-07
0.111236572265625, -7.3455810546875E-07
0.11016845703125, -7.366943359375E-07
0.109100341796875, -7.330322265625E-07
0.1080322265625, -7.33642578125E-07
0.106964111328125, -7.269287109375E-07
0.10589599609375, -7.342529296875E-07
0.104827880859375, -7.257080078125E-07
0.103759765625, -7.2998046875E-07
0.102691650390625, -7.21435546875E-07
0.10162353515625, -7.2967529296875E-07
0.100555419921875, -7.1990966796875E-07
0.0994873046875, -7.244873046875E-07
0.098419189453125, -7.1807861328125E-07
0.09735107421875, -7.2357177734375E-07
0.096282958984375, -7.16552734375E-07
0.09521484375, -7.1807861328125E-07
0.094146728515625, -7.159423828125E-07
0.09307861328125, -7.16552734375E-07
0.092010498046875, -7.14111328125E-07
0.0909423828125, -7.110595703125E-07
0.089874267578125, -7.147216796875E-07
0.08880615234375, -7.0953369140625E-07
0.087738037109375, -7.1136474609375E-07
0.086669921875, -7.04345703125E-07
0.085601806640625, -7.12890625E-07
0.08453369140625, -7.0343017578125E-07
0.083465576171875, -7.0831298828125E-07
0.0823974609375, -7.000732421875E-07
0.081329345703125, -7.086181640625E-07
0.08026123046875, -6.99462890625E-07
0.079193115234375, -7.037353515625E-07
0.078125, -6.9854736328125E-07
0.077056884765625, -7.03125E-07
0.07598876953125, -6.9732666015625E-07
0.074920654296875, -6.976318359375E-07
0.0738525390625, -6.9732666015625E-07
0.072784423828125, -6.9732666015625E-07
0.07171630859375, -6.9580078125E-07
0.070648193359375, -6.9244384765625E-07
0.069580078125, -6.97021484375E-07
0.068511962890625, -6.9091796875E-07
0.06744384765625, -6.9427490234375E-07
0.066375732421875, -6.8695068359375E-07
0.0653076171875, -6.9549560546875E-07
0.064239501953125, -6.8634033203125E-07
0.06317138671875, -6.915283203125E-07
0.062103271484375, -6.842041015625E-07
0.06103515625, -6.9183349609375E-07
0.059967041015625, -6.8389892578125E-07
0.05889892578125, -6.8756103515625E-07
0.057830810546875, -6.829833984375E-07
0.0567626953125, -6.87255859375E-07
0.055694580078125, -6.82373046875E-07
0.05462646484375, -6.8267822265625E-07
0.053558349609375, -6.829833984375E-07
0.052490234375, -6.82373046875E-07
0.051422119140625, -6.82373046875E-07
0.05035400390625, -6.77490234375E-07
0.049285888671875, -6.8389892578125E-07
0.0482177734375, -6.77490234375E-07
0.047149658203125, -6.8145751953125E-07
0.04608154296875, -6.744384765625E-07
0.045013427734375, -6.82373046875E-07
0.0439453125, -6.744384765625E-07
0.042877197265625, -6.793212890625E-07
0.04180908203125, -6.7291259765625E-07
0.040740966796875, -6.79931640625E-07
0.0396728515625, -6.7291259765625E-07
0.038604736328125, -6.7596435546875E-07
0.03753662109375, -6.7352294921875E-07
0.036468505859375, -6.7596435546875E-07
0.035400390625, -6.732177734375E-07
0.034332275390625, -6.7169189453125E-07
0.03326416015625, -6.744384765625E-07
0.032196044921875, -6.7169189453125E-07
0.0311279296875, -6.732177734375E-07
0.030059814453125, -6.6864013671875E-07
0.02899169921875, -6.7474365234375E-07
0.027923583984375, -6.6925048828125E-07
0.02685546875, -6.7352294921875E-07
0.025787353515625, -6.6680908203125E-07
0.02471923828125, -6.7474365234375E-07
0.023651123046875, -6.671142578125E-07
0.0225830078125, -6.719970703125E-07
0.021514892578125, -6.6680908203125E-07
0.02044677734375, -6.72607421875E-07
0.019378662109375, -6.671142578125E-07
0.018310546875, -6.689453125E-07
0.017242431640625, -6.6802978515625E-07
0.01617431640625, -6.695556640625E-07
0.015106201171875, -6.6802978515625E-07
0.0140380859375, -6.6650390625E-07
0.012969970703125, -6.70166015625E-07
0.01190185546875, -6.6741943359375E-07
0.010833740234375, -6.6925048828125E-07
0.009765625, -6.6436767578125E-07
0.008697509765625, -6.7138671875E-07
0.00762939453125, -6.658935546875E-07
0.006561279296875, -6.6986083984375E-07
0.0054931640625, -6.640625E-07
0.004425048828125, -6.7138671875E-07
0.00335693359375, -6.6558837890625E-07
0.002288818359375, -6.695556640625E-07
0.001220703125, -6.658935546875E-07
0.000152587890625, -6.707763671875E-07
-0.00091552734375, -6.6650390625E-07
0.000152587890625, -6.463623046875E-07
0.001220703125, -6.3018798828125E-07
0.002288818359375, -6.1920166015625E-07
0.00335693359375, -6.0638427734375E-07
0.004425048828125, -5.9417724609375E-07
0.0054931640625, -5.889892578125E-07
0.006561279296875, -5.7647705078125E-07
0.00762939453125, -5.706787109375E-07
0.008697509765625, -5.57861328125E-07
0.009765625, -5.5755615234375E-07
0.010833740234375, -5.4443359375E-07
0.01190185546875, -5.419921875E-07
0.012969970703125, -5.3070068359375E-07
0.0140380859375, -5.3131103515625E-07
0.015106201171875, -5.194091796875E-07
0.01617431640625, -5.1788330078125E-07
0.017242431640625, -5.0872802734375E-07
0.018310546875, -5.084228515625E-07
0.019378662109375, -4.99267578125E-07
0.02044677734375, -4.9652099609375E-07
0.021514892578125, -4.9163818359375E-07
0.0225830078125, -4.88311767578125E-07
0.023651123046875, -4.83123779296875E-07
0.02471923828125, -4.7796630859375E-07
0.025787353515625, -4.77783203125E-07
0.02685546875, -4.70977783203125E-07
0.027923583984375, -4.69635009765625E-07
0.02899169921875, -4.6148681640625E-07
0.030059814453125, -4.65179443359375E-07
0.0311279296875, -4.5550537109375E-07
0.032196044921875, -4.5684814453125E-07
0.03326416015625, -4.4830322265625E-07
0.034332275390625, -4.52178955078125E-07
0.035400390625, -4.43145751953125E-07
0.036468505859375, -4.4390869140625E-07
0.03753662109375, -4.3798828125E-07
0.038604736328125, -4.39605712890625E-07
0.0396728515625, -4.3304443359375E-07
0.040740966796875, -4.315185546875E-07
0.04180908203125, -4.29656982421875E-07
0.042877197265625, -4.27001953125E-07
0.0439453125, -4.24713134765625E-07
0.045013427734375, -4.20013427734375E-07
0.04608154296875, -4.22088623046875E-07
0.047149658203125, -4.15985107421875E-07
0.0482177734375, -4.1705322265625E-07
0.049285888671875, -4.09698486328125E-07
0.05035400390625, -4.1461181640625E-07
0.051422119140625, -4.06219482421875E-07
0.052490234375, -4.08905029296875E-07
0.053558349609375, -4.0167236328125E-07
0.05462646484375, -4.06402587890625E-07
0.055694580078125, -3.9886474609375E-07
0.0567626953125, -4.002685546875E-07
0.057830810546875, -3.9544677734375E-07
0.05889892578125, -3.97247314453125E-07
0.059967041015625, -3.92578125E-07
0.06103515625, -3.90899658203125E-07
0.062103271484375, -3.9105224609375E-07
0.06317138671875, -3.8818359375E-07
0.064239501953125, -3.87451171875E-07
0.0653076171875, -3.826904296875E-07
0.066375732421875, -3.86260986328125E-07
0.06744384765625, -3.800048828125E-07
0.068511962890625, -3.8201904296875E-07
0.069580078125, -3.75457763671875E-07
0.070648193359375, -3.80950927734375E-07
0.07171630859375, -3.73077392578125E-07
0.072784423828125, -3.760986328125E-07
0.0738525390625, -3.69537353515625E-07
0.074920654296875, -3.7457275390625E-07
0.07598876953125, -3.6773681640625E-07
0.077056884765625, -3.69049072265625E-07
0.078125, -3.66119384765625E-07
0.079193115234375, -3.66790771484375E-07
0.08026123046875, -3.6358642578125E-07
0.081329345703125, -3.612060546875E-07
0.0823974609375, -3.62884521484375E-07
0.083465576171875, -3.592529296875E-07
0.08453369140625, -3.6004638671875E-07
0.085601806640625, -3.544921875E-07
0.086669921875, -3.59649658203125E-07
0.087738037109375, -3.52783203125E-07
0.08880615234375, -3.55682373046875E-07
0.089874267578125, -3.48968505859375E-07
0.0909423828125, -3.54888916015625E-07
0.092010498046875, -3.47259521484375E-07
0.09307861328125, -3.50189208984375E-07
0.094146728515625, -3.448486328125E-07
0.09521484375, -3.4912109375E-07
0.096282958984375, -3.43536376953125E-07
0.09735107421875, -3.43994140625E-07
0.098419189453125, -3.42315673828125E-07
0.0994873046875, -3.42437744140625E-07
0.100555419921875, -3.4075927734375E-07
0.10162353515625, -3.3758544921875E-07
0.102691650390625, -3.40240478515625E-07
0.103759765625, -3.359375E-07
0.104827880859375, -3.3746337890625E-07
0.10589599609375, -3.31695556640625E-07
0.106964111328125, -3.3709716796875E-07
0.1080322265625, -3.3038330078125E-07
0.109100341796875, -3.33740234375E-07
0.11016845703125, -3.27362060546875E-07
0.111236572265625, -3.3258056640625E-07
0.1123046875, -3.262939453125E-07
0.113372802734375, -3.28765869140625E-07
0.11444091796875, -3.24005126953125E-07
0.115509033203125, -3.27423095703125E-07
0.1165771484375, -3.22906494140625E-07
0.117645263671875, -3.22906494140625E-07
0.11871337890625, -3.221435546875E-07
0.119781494140625, -3.2122802734375E-07
0.120849609375, -3.20404052734375E-07
0.121917724609375, -3.16864013671875E-07
0.12298583984375, -3.20098876953125E-07
0.124053955078125, -3.15582275390625E-07
0.1251220703125, -3.1787109375E-07
0.126190185546875, -3.118896484375E-07
0.12725830078125, -3.1719970703125E-07
0.128326416015625, -3.10943603515625E-07
0.12939453125, -3.13812255859375E-07
0.130462646484375, -3.08135986328125E-07
0.13153076171875, -3.12744140625E-07
0.132598876953125, -3.07708740234375E-07
0.1336669921875, -3.08868408203125E-07
0.134735107421875, -3.05908203125E-07
0.13580322265625, -3.07952880859375E-07
0.136871337890625, -3.04473876953125E-07
0.137939453125, -3.035888671875E-07
0.139007568359375, -3.0413818359375E-07
0.14007568359375, -3.02520751953125E-07
0.141143798828125, -3.0224609375E-07
0.1422119140625, -2.98492431640625E-07
0.143280029296875, -3.01727294921875E-07
0.14434814453125, -2.97454833984375E-07
0.145416259765625, -2.991943359375E-07
0.146484375, -2.94219970703125E-07
0.147552490234375, -2.9901123046875E-07
0.14862060546875, -2.93365478515625E-07
0.149688720703125, -2.957763671875E-07
0.1507568359375, -2.9107666015625E-07
0.151824951171875, -2.9473876953125E-07
0.15289306640625, -2.9010009765625E-07
0.153961181640625, -2.90985107421875E-07
0.155029296875, -2.89337158203125E-07
0.156097412109375, -2.900390625E-07
0.15716552734375, -2.8741455078125E-07
0.158233642578125, -2.8607177734375E-07
0.1593017578125, -2.8704833984375E-07
0.160369873046875, -2.8515625E-07
0.16143798828125, -2.8533935546875E-07
0.162506103515625, -2.81585693359375E-07
0.16357421875, -2.85064697265625E-07
0.164642333984375, -2.80792236328125E-07
0.16571044921875, -2.822265625E-07
0.166778564453125, -2.77679443359375E-07
0.1678466796875, -2.82073974609375E-07
0.168914794921875, -2.76611328125E-07
0.16998291015625, -2.79052734375E-07
0.171051025390625, -2.7490234375E-07
0.172119140625, -2.78289794921875E-07
0.173187255859375, -2.740478515625E-07
0.17425537109375, -2.74139404296875E-07
0.175323486328125, -2.7294921875E-07
0.1763916015625, -2.73590087890625E-07
0.177459716796875, -2.71331787109375E-07
0.17852783203125, -2.7008056640625E-07
0.179595947265625, -2.7117919921875E-07
0.1806640625, -2.691650390625E-07
0.181732177734375, -2.689208984375E-07
0.18280029296875, -2.6544189453125E-07
0.183868408203125, -2.69134521484375E-07
0.1849365234375, -2.647705078125E-07
0.186004638671875, -2.6666259765625E-07
0.18707275390625, -2.61932373046875E-07
0.188140869140625, -2.66143798828125E-07
0.189208984375, -2.61199951171875E-07
0.190277099609375, -2.6300048828125E-07
0.19134521484375, -2.59521484375E-07
0.192413330078125, -2.62420654296875E-07
0.1934814453125, -2.5860595703125E-07
0.194549560546875, -2.5921630859375E-07
0.19561767578125, -2.57568359375E-07
0.196685791015625, -2.58331298828125E-07
0.19775390625, -2.559814453125E-07
0.198822021484375, -2.54730224609375E-07
0.19989013671875, -2.5592041015625E-07
0.200958251953125, -2.53814697265625E-07
0.2020263671875, -2.54302978515625E-07
0.203094482421875, -2.50732421875E-07
0.20416259765625, -2.540283203125E-07
0.205230712890625, -2.4969482421875E-07
0.206298828125, -2.51708984375E-07
0.207366943359375, -2.47222900390625E-07
0.20843505859375, -2.51617431640625E-07
0.209503173828125, -2.46673583984375E-07
0.2105712890625, -2.48504638671875E-07
0.211639404296875, -2.44598388671875E-07
0.21270751953125, -2.48046875E-07
0.213775634765625, -2.43408203125E-07
0.21484375, -2.44598388671875E-07
0.215911865234375, -2.42950439453125E-07
0.21697998046875, -2.43499755859375E-07
0.218048095703125, -2.41790771484375E-07
0.2191162109375, -2.39959716796875E-07
0.220184326171875, -2.41912841796875E-07
0.22125244140625, -2.39044189453125E-07
0.222320556640625, -2.40325927734375E-07
0.223388671875, -2.36114501953125E-07
0.224456787109375, -2.4005126953125E-07
0.22552490234375, -2.35137939453125E-07
0.226593017578125, -2.3779296875E-07
0.2276611328125, -2.32757568359375E-07
0.228729248046875, -2.374267578125E-07
0.22979736328125, -2.3187255859375E-07
0.230865478515625, -2.34283447265625E-07
0.23193359375, -2.3065185546875E-07
0.233001708984375, -2.33673095703125E-07
0.23406982421875, -2.30072021484375E-07
0.235137939453125, -2.3016357421875E-07
0.2362060546875, -2.29339599609375E-07
0.237274169921875, -2.291259765625E-07
0.23834228515625, -2.27935791015625E-07
0.239410400390625, -2.25616455078125E-07
0.240478515625, -2.28240966796875E-07
0.241546630859375, -2.247314453125E-07
0.24261474609375, -2.2650146484375E-07
0.243682861328125, -2.218017578125E-07
0.2447509765625, -2.26715087890625E-07
0.245819091796875, -2.20703125E-07
0.24688720703125, -2.23663330078125E-07
0.247955322265625, -2.19268798828125E-07
0.2490234375, -2.23388671875E-07
0.250091552734375, -2.18048095703125E-07
0.25115966796875, -2.20184326171875E-07
0.252227783203125, -2.1722412109375E-07
0.2532958984375, -2.191162109375E-07
0.254364013671875, -2.158203125E-07
0.25543212890625, -2.1575927734375E-07
0.256500244140625, -2.1575927734375E-07
0.257568359375, -2.14569091796875E-07
0.258636474609375, -2.14385986328125E-07
0.25970458984375, -2.1136474609375E-07
0.260772705078125, -2.1453857421875E-07
0.2618408203125, -2.09991455078125E-07
0.262908935546875, -2.12371826171875E-07
0.26397705078125, -2.07244873046875E-07
0.265045166015625, -2.1240234375E-07
0.26611328125, -2.0648193359375E-07
0.267181396484375, -2.0947265625E-07
0.26824951171875, -2.04925537109375E-07
0.269317626953125, -2.08587646484375E-07
0.2703857421875, -2.0367431640625E-07
0.271453857421875, -2.05322265625E-07
0.27252197265625, -2.0330810546875E-07
0.273590087890625, -2.04254150390625E-07
0.274658203125, -2.02056884765625E-07
0.275726318359375, -2.0050048828125E-07
0.27679443359375, -2.01812744140625E-07
0.277862548828125, -1.99249267578125E-07
0.2789306640625, -1.9989013671875E-07
0.279998779296875, -1.96075439453125E-07
0.28106689453125, -1.99737548828125E-07
0.282135009765625, -1.951904296875E-07
0.283203125, -1.97509765625E-07
0.284271240234375, -1.92138671875E-07
0.28533935546875, -1.96868896484375E-07
0.286407470703125, -1.912841796875E-07
0.2874755859375, -1.9378662109375E-07
0.288543701171875, -1.89971923828125E-07
0.28961181640625, -1.9256591796875E-07
0.290679931640625, -1.88568115234375E-07
0.291748046875, -1.88751220703125E-07
0.292816162109375, -1.87347412109375E-07
0.29388427734375, -1.87469482421875E-07
0.294952392578125, -1.85699462890625E-07
0.2960205078125, -1.83624267578125E-07
0.297088623046875, -1.8505859375E-07
0.29815673828125, -1.82159423828125E-07
0.299224853515625, -1.82891845703125E-07
0.30029296875, -1.785888671875E-07
0.301361083984375, -1.82403564453125E-07
0.30242919921875, -1.7730712890625E-07
0.303497314453125, -1.79046630859375E-07
0.3045654296875, -1.74163818359375E-07
0.305633544921875, -1.77764892578125E-07
0.30670166015625, -1.73065185546875E-07
0.307769775390625, -1.74285888671875E-07
0.308837890625, -1.70501708984375E-07
0.309906005859375, -1.724853515625E-07
0.31097412109375, -1.68914794921875E-07
0.312042236328125, -1.685791015625E-07
0.3131103515625, -1.6754150390625E-07
0.314178466796875, -1.66656494140625E-07
0.31524658203125, -1.64825439453125E-07
0.316314697265625, -1.61834716796875E-07
0.3173828125, -1.6351318359375E-07
0.318450927734375, -1.597900390625E-07
0.31951904296875, -1.60003662109375E-07
0.320587158203125, -1.55548095703125E-07
0.3216552734375, -1.5826416015625E-07
0.322723388671875, -1.53228759765625E-07
0.32379150390625, -1.54296875E-07
0.324859619140625, -1.49383544921875E-07
0.325927734375, -1.51947021484375E-07
0.326995849609375, -1.46575927734375E-07
0.32806396484375, -1.46697998046875E-07
0.329132080078125, -1.43280029296875E-07
0.3302001953125, -1.4398193359375E-07
0.331268310546875, -1.396484375E-07
0.33233642578125, -1.38580322265625E-07
0.333404541015625, -1.36871337890625E-07
0.33447265625, -1.35040283203125E-07
0.335540771484375, -1.32354736328125E-07
0.33660888671875, -1.29119873046875E-07
0.337677001953125, -1.2933349609375E-07
0.3387451171875, -1.251220703125E-07
0.339813232421875, -1.239013671875E-07
0.34088134765625, -1.18743896484375E-07
0.341949462890625, -1.201171875E-07
0.343017578125, -1.14410400390625E-07
0.344085693359375, -1.138916015625E-07
0.34515380859375, -1.0845947265625E-07
0.346221923828125, -1.08795166015625E-07
0.3472900390625, -1.03057861328125E-07
0.348358154296875, -1.016845703125E-07
0.34942626953125, -9.7198486328125E-08
0.350494384765625, -9.60693359375E-08
0.3515625, -9.063720703125E-08
0.352630615234375, -8.7310791015625E-08
0.35369873046875, -8.428955078125E-08
0.354766845703125, -8.0596923828125E-08
0.3558349609375, -7.6934814453125E-08
0.356903076171875, -7.1258544921875E-08
0.35797119140625, -6.9488525390625E-08
0.359039306640625, -6.329345703125E-08
0.360107421875, -6.04248046875E-08
0.361175537109375, -5.316162109375E-08
0.36224365234375, -5.18798828125E-08
0.363311767578125, -4.376220703125E-08
0.3643798828125, -4.0948486328125E-08
0.365447998046875, -3.32305908203125E-08
0.36651611328125, -3.12103271484375E-08
0.367584228515625, -2.2601318359375E-08
0.36865234375, -1.84173583984375E-08
0.369720458984375, -1.12518310546875E-08
0.37078857421875, -6.5704345703125E-09
0.371856689453125, 1.220703125E-09
0.3729248046875, 7.733154296875E-09
0.373992919921875, 1.41754150390625E-08
0.37506103515625, 2.07183837890625E-08
0.376129150390625, 2.8369140625E-08
0.377197265625, 3.7066650390625E-08
0.378265380859375, 4.2596435546875E-08
0.37933349609375, 5.2276611328125E-08
0.380401611328125, 5.9417724609375E-08
0.3814697265625, 6.988525390625E-08
0.382537841796875, 7.5927734375E-08
0.38360595703125, 8.7554931640625E-08
0.384674072265625, 9.50927734375E-08
0.3857421875, 1.0693359375E-07
0.386810302734375, 1.14013671875E-07
0.38787841796875, 1.2689208984375E-07
0.388946533203125, 1.3519287109375E-07
0.3900146484375, 1.4727783203125E-07
0.391082763671875, 1.57257080078125E-07
0.39215087890625, 1.7022705078125E-07
0.393218994140625, 1.82281494140625E-07
0.394287109375, 1.9403076171875E-07
0.395355224609375, 2.06878662109375E-07
0.39642333984375, 2.197265625E-07
0.397491455078125, 2.3443603515625E-07
0.3985595703125, 2.4609375E-07
0.399627685546875, 2.623291015625E-07
0.40069580078125, 2.752685546875E-07
0.401763916015625, 2.9266357421875E-07
0.40283203125, 3.04840087890625E-07
0.403900146484375, 3.23333740234375E-07
0.40496826171875, 3.38348388671875E-07
0.406036376953125, 3.56109619140625E-07
0.4071044921875, 3.70941162109375E-07
0.408172607421875, 3.90380859375E-07
0.40924072265625, 4.071044921875E-07
0.410308837890625, 4.26025390625E-07
0.411376953125, 4.442138671875E-07
0.412445068359375, 4.6429443359375E-07
0.41351318359375, 4.84222412109375E-07
0.414581298828125, 5.04241943359375E-07
0.4156494140625, 5.24810791015625E-07
0.416717529296875, 5.4534912109375E-07
0.41778564453125, 5.6817626953125E-07
0.418853759765625, 5.89019775390625E-07
0.419921875, 6.12091064453125E-07
0.420989990234375, 6.341552734375E-07
0.42205810546875, 6.585693359375E-07
0.423126220703125, 6.8206787109375E-07
0.4241943359375, 7.080078125E-07
0.425262451171875, 7.318115234375E-07
0.42633056640625, 7.5836181640625E-07
0.427398681640625, 7.818603515625E-07
0.428466796875, 8.0963134765625E-07
0.429534912109375, 8.36181640625E-07
0.43060302734375, 8.6517333984375E-07
0.431671142578125, 8.92333984375E-07
0.4327392578125, 9.2132568359375E-07
0.433807373046875, 9.5123291015625E-07
0.43487548828125, 9.80224609375E-07
0.435943603515625, 1.01104736328125E-06
0.43701171875, 1.04156494140625E-06
0.438079833984375, 1.07391357421875E-06
0.43914794921875, 1.104736328125E-06
0.440216064453125, 1.13800048828125E-06
0.4412841796875, 1.17034912109375E-06
0.442352294921875, 1.2042236328125E-06
0.44342041015625, 1.2371826171875E-06
0.444488525390625, 1.27227783203125E-06
0.445556640625, 1.30645751953125E-06
0.446624755859375, 1.34307861328125E-06
0.44769287109375, 1.378173828125E-06
0.448760986328125, 1.414794921875E-06
0.4498291015625, 1.45172119140625E-06
0.450897216796875, 1.49017333984375E-06
0.45196533203125, 1.5264892578125E-06
0.453033447265625, 1.566162109375E-06
0.4541015625, 1.60430908203125E-06
0.455169677734375, 1.6455078125E-06
0.45623779296875, 1.6839599609375E-06
0.457305908203125, 1.72607421875E-06
0.4583740234375, 1.7657470703125E-06
0.459442138671875, 1.8072509765625E-06
0.46051025390625, 1.849365234375E-06
0.461578369140625, 1.8927001953125E-06
0.462646484375, 1.93572998046875E-06
0.463714599609375, 1.97967529296875E-06
0.46478271484375, 2.0233154296875E-06
0.465850830078125, 2.06756591796875E-06
0.4669189453125, 2.11090087890625E-06
0.467987060546875, 2.15576171875E-06
0.46905517578125, 2.203369140625E-06
0.470123291015625, 2.2491455078125E-06
0.47119140625, 2.29736328125E-06
0.472259521484375, 2.3431396484375E-06
0.47332763671875, 2.39227294921875E-06
0.474395751953125, 2.43865966796875E-06
0.4754638671875, 2.4896240234375E-06
0.476531982421875, 2.53662109375E-06
0.47760009765625, 2.587890625E-06
0.478668212890625, 2.6361083984375E-06
0.479736328125, 2.6885986328125E-06
0.480804443359375, 2.73773193359375E-06
0.48187255859375, 2.79022216796875E-06
0.482940673828125, 2.8411865234375E-06
0.4840087890625, 2.89337158203125E-06
0.485076904296875, 2.94464111328125E-06
0.48614501953125, 2.99713134765625E-06
0.487213134765625, 3.05267333984375E-06
0.48828125, 3.104248046875E-06
0.489349365234375, 3.15948486328125E-06
0.49041748046875, 3.211669921875E-06
0.491485595703125, 3.2696533203125E-06
0.4925537109375, 3.3209228515625E-06
0.493621826171875, 3.37921142578125E-06
0.49468994140625, 3.43292236328125E-06
0.495758056640625, 3.4930419921875E-06
0.496826171875, 3.54644775390625E-06
0.497894287109375, 3.60504150390625E-06
0.49896240234375, 3.65997314453125E-06
0.500030517578125, 3.72039794921875E-06
##END=$$ End of the data block
