##TITLE=Spectrum
##JCAMP-DX=5.00 $$ chemotion-converter-app (1.5.0)
##DATA TYPE=CYCLIC VOLTAMMETRY
##DATA CLASS=XYPOINTS
##ORIGIN=
##OWNER=
##XUNITS=Voltage vs Ref
##YUNITS=Ampere
##SCAN_RATE=0.09994812
##STEP_SIZE=0.00106754
##VOLTAGE_LIMIT_END=0.50003051
##VOLTAGE_START=0.50109863
##VOLTAGE_LIMIT_ONE=1.00097656
##VOLTAGE_LIMIT_TWO=-0.0009155
##FIRSTX=0.5010986328125
##LASTX=0.500030517578125
##MINX=-0.00091552734375
##MAXX=1.0009765625
##MINY=-1.1480712890625e-05
##MAXY=1.31378173828125e-05
##NPOINTS=1876
##FIRSTY=1E-05
##XUNITS=Voltage vs Ref
##YUNITS=Ampere
##XYPOINTS=(XY..XY)
0.5010986328125, 1E-05
0.502166748046875, 9.3109130859375E-06
0.50323486328125, 8.7432861328125E-06
0.504302978515625, 8.38623046875E-06
0.50537109375, 8.111572265625E-06
0.506439208984375, 7.92236328125E-06
0.50750732421875, 7.769775390625E-06
0.508575439453125, 7.6568603515625E-06
0.5096435546875, 7.5592041015625E-06
0.510711669921875, 7.4859619140625E-06
0.51177978515625, 7.427978515625E-06
0.512847900390625, 7.379150390625E-06
0.513916015625, 7.3394775390625E-06
0.514984130859375, 7.3089599609375E-06
0.51605224609375, 7.293701171875E-06
0.517120361328125, 7.269287109375E-06
0.5181884765625, 7.26318359375E-06
0.519256591796875, 7.2509765625E-06
0.52032470703125, 7.257080078125E-06
0.521392822265625, 7.2509765625E-06
0.5224609375, 7.2601318359375E-06
0.523529052734375, 7.26318359375E-06
0.52459716796875, 7.281494140625E-06
0.525665283203125, 7.28759765625E-06
0.5267333984375, 7.3089599609375E-06
0.527801513671875, 7.3211669921875E-06
0.52886962890625, 7.3486328125E-06
0.529937744140625, 7.366943359375E-06
0.531005859375, 7.391357421875E-06
0.532073974609375, 7.4188232421875E-06
0.53314208984375, 7.4432373046875E-06
0.534210205078125, 7.4737548828125E-06
0.5352783203125, 7.501220703125E-06
0.536346435546875, 7.537841796875E-06
0.53741455078125, 7.5653076171875E-06
0.538482666015625, 7.60498046875E-06
0.53955078125, 7.6324462890625E-06
0.540618896484375, 7.6812744140625E-06
0.54168701171875, 7.708740234375E-06
0.542755126953125, 7.757568359375E-06
0.5438232421875, 7.7880859375E-06
0.544891357421875, 7.8338623046875E-06
0.54595947265625, 7.8704833984375E-06
0.547027587890625, 7.916259765625E-06
0.548095703125, 7.9559326171875E-06
0.549163818359375, 8.0078125E-06
0.55023193359375, 8.0474853515625E-06
0.551300048828125, 8.09326171875E-06
0.5523681640625, 8.1451416015625E-06
0.553436279296875, 8.1878662109375E-06
0.55450439453125, 8.2366943359375E-06
0.555572509765625, 8.282470703125E-06
0.556640625, 8.3404541015625E-06
0.557708740234375, 8.380126953125E-06
0.55877685546875, 8.4381103515625E-06
0.559844970703125, 8.4808349609375E-06
0.5609130859375, 8.544921875E-06
0.561981201171875, 8.5845947265625E-06
0.56304931640625, 8.642578125E-06
0.564117431640625, 8.6883544921875E-06
0.565185546875, 8.75244140625E-06
0.566253662109375, 8.795166015625E-06
0.56732177734375, 8.856201171875E-06
0.568389892578125, 8.9080810546875E-06
0.5694580078125, 8.966064453125E-06
0.570526123046875, 9.0179443359375E-06
0.57159423828125, 9.06982421875E-06
0.572662353515625, 9.130859375E-06
0.57373046875, 9.1827392578125E-06
0.574798583984375, 9.24072265625E-06
0.57586669921875, 9.28955078125E-06
0.576934814453125, 9.3597412109375E-06
0.5780029296875, 9.4024658203125E-06
0.579071044921875, 9.466552734375E-06
0.58013916015625, 9.515380859375E-06
0.581207275390625, 9.58251953125E-06
0.582275390625, 9.6282958984375E-06
0.583343505859375, 9.6954345703125E-06
0.58441162109375, 9.7412109375E-06
0.585479736328125, 9.8114013671875E-06
0.5865478515625, 9.857177734375E-06
0.587615966796875, 9.9212646484375E-06
0.58868408203125, 9.979248046875E-06
0.589752197265625, 1.00372314453125E-05
0.5908203125, 1.00921630859375E-05
0.591888427734375, 1.01470947265625E-05
0.59295654296875, 1.02142333984375E-05
0.594024658203125, 1.02630615234375E-05
0.5950927734375, 1.03271484375E-05
0.596160888671875, 1.03759765625E-05
0.59722900390625, 1.04461669921875E-05
0.598297119140625, 1.0491943359375E-05
0.599365234375, 1.05560302734375E-05
0.600433349609375, 1.06048583984375E-05
0.60150146484375, 1.0675048828125E-05
0.602569580078125, 1.07177734375E-05
0.6036376953125, 1.0784912109375E-05
0.604705810546875, 1.0833740234375E-05
0.60577392578125, 1.090087890625E-05
0.606842041015625, 1.09466552734375E-05
0.60791015625, 1.1004638671875E-05
0.608978271484375, 1.10626220703125E-05
0.61004638671875, 1.1114501953125E-05
0.611114501953125, 1.11724853515625E-05
0.6121826171875, 1.12213134765625E-05
0.613250732421875, 1.1285400390625E-05
0.61431884765625, 1.13311767578125E-05
0.615386962890625, 1.13922119140625E-05
0.616455078125, 1.14349365234375E-05
0.617523193359375, 1.1505126953125E-05
0.61859130859375, 1.1541748046875E-05
0.619659423828125, 1.16058349609375E-05
0.6207275390625, 1.16455078125E-05
0.621795654296875, 1.1712646484375E-05
0.62286376953125, 1.17462158203125E-05
0.623931884765625, 1.180419921875E-05
0.625, 1.185302734375E-05
0.626068115234375, 1.19110107421875E-05
0.62713623046875, 1.19537353515625E-05
0.628204345703125, 1.199951171875E-05
0.6292724609375, 1.2054443359375E-05
0.630340576171875, 1.21002197265625E-05
0.63140869140625, 1.214599609375E-05
0.632476806640625, 1.21856689453125E-05
0.633544921875, 1.224365234375E-05
0.634613037109375, 1.22772216796875E-05
0.63568115234375, 1.23291015625E-05
0.636749267578125, 1.2359619140625E-05
0.6378173828125, 1.2420654296875E-05
0.638885498046875, 1.2445068359375E-05
0.63995361328125, 1.24969482421875E-05
0.641021728515625, 1.25213623046875E-05
0.64208984375, 1.25762939453125E-05
0.643157958984375, 1.26007080078125E-05
0.64422607421875, 1.2646484375E-05
0.645294189453125, 1.2677001953125E-05
0.6463623046875, 1.27197265625E-05
0.647430419921875, 1.27471923828125E-05
0.64849853515625, 1.27777099609375E-05
0.649566650390625, 1.28173828125E-05
0.650634765625, 1.28448486328125E-05
0.651702880859375, 1.28753662109375E-05
0.65277099609375, 1.2896728515625E-05
0.653839111328125, 1.29364013671875E-05
0.6549072265625, 1.29486083984375E-05
0.655975341796875, 1.2982177734375E-05
0.65704345703125, 1.29913330078125E-05
0.658111572265625, 1.3031005859375E-05
0.6591796875, 1.3031005859375E-05
0.660247802734375, 1.30615234375E-05
0.66131591796875, 1.30645751953125E-05
0.662384033203125, 1.30950927734375E-05
0.6634521484375, 1.3092041015625E-05
0.664520263671875, 1.31134033203125E-05
0.66558837890625, 1.31195068359375E-05
0.666656494140625, 1.31317138671875E-05
0.667724609375, 1.3128662109375E-05
0.668792724609375, 1.31317138671875E-05
0.66986083984375, 1.31378173828125E-05
0.670928955078125, 1.31317138671875E-05
0.6719970703125, 1.3128662109375E-05
0.673065185546875, 1.31134033203125E-05
0.67413330078125, 1.312255859375E-05
0.675201416015625, 1.3092041015625E-05
0.67626953125, 1.30859375E-05
0.677337646484375, 1.30523681640625E-05
0.67840576171875, 1.3055419921875E-05
0.679473876953125, 1.3006591796875E-05
0.6805419921875, 1.29913330078125E-05
0.681610107421875, 1.29486083984375E-05
0.68267822265625, 1.29302978515625E-05
0.683746337890625, 1.2872314453125E-05
0.684814453125, 1.2835693359375E-05
0.685882568359375, 1.27838134765625E-05
0.68695068359375, 1.2738037109375E-05
0.688018798828125, 1.26739501953125E-05
0.6890869140625, 1.2603759765625E-05
0.690155029296875, 1.25457763671875E-05
0.69122314453125, 1.246337890625E-05
0.692291259765625, 1.2384033203125E-05
0.693359375, 1.22833251953125E-05
0.694427490234375, 1.22100830078125E-05
0.69549560546875, 1.20849609375E-05
0.696563720703125, 1.19842529296875E-05
0.6976318359375, 1.1846923828125E-05
0.698699951171875, 1.17401123046875E-05
0.69976806640625, 1.1572265625E-05
0.700836181640625, 1.1431884765625E-05
0.701904296875, 1.12457275390625E-05
0.702972412109375, 1.1090087890625E-05
0.70404052734375, 1.08673095703125E-05
0.705108642578125, 1.06658935546875E-05
0.7061767578125, 1.04248046875E-05
0.707244873046875, 1.01806640625E-05
0.70831298828125, 9.893798828125E-06
0.709381103515625, 9.588623046875E-06
0.71044921875, 9.27734375E-06
0.711517333984375, 8.9141845703125E-06
0.71258544921875, 8.5479736328125E-06
0.713653564453125, 8.135986328125E-06
0.7147216796875, 7.7606201171875E-06
0.715789794921875, 7.3211669921875E-06
0.71685791015625, 6.9305419921875E-06
0.717926025390625, 6.512451171875E-06
0.718994140625, 6.1798095703125E-06
0.720062255859375, 5.79833984375E-06
0.72113037109375, 5.50537109375E-06
0.722198486328125, 5.1910400390625E-06
0.7232666015625, 4.9591064453125E-06
0.724334716796875, 4.6923828125E-06
0.72540283203125, 4.49188232421875E-06
0.726470947265625, 4.28955078125E-06
0.7275390625, 4.1302490234375E-06
0.728607177734375, 3.95660400390625E-06
0.72967529296875, 3.8134765625E-06
0.730743408203125, 3.697509765625E-06
0.7318115234375, 3.57086181640625E-06
0.732879638671875, 3.47198486328125E-06
0.73394775390625, 3.35601806640625E-06
0.735015869140625, 3.30230712890625E-06
0.736083984375, 3.19000244140625E-06
0.737152099609375, 3.1414794921875E-06
0.73822021484375, 3.0401611328125E-06
0.739288330078125, 3.02276611328125E-06
0.7403564453125, 2.92633056640625E-06
0.741424560546875, 2.89886474609375E-06
0.74249267578125, 2.8253173828125E-06
0.743560791015625, 2.81097412109375E-06
0.74462890625, 2.74078369140625E-06
0.745697021484375, 2.71270751953125E-06
0.74676513671875, 2.66937255859375E-06
0.747833251953125, 2.64404296875E-06
0.7489013671875, 2.6019287109375E-06
0.749969482421875, 2.56561279296875E-06
0.75103759765625, 2.5543212890625E-06
0.752105712890625, 2.51007080078125E-06
0.753173828125, 2.49725341796875E-06
0.754241943359375, 2.44720458984375E-06
0.75531005859375, 2.4615478515625E-06
0.756378173828125, 2.40325927734375E-06
0.7574462890625, 2.40966796875E-06
0.758514404296875, 2.35748291015625E-06
0.75958251953125, 2.3785400390625E-06
0.760650634765625, 2.32513427734375E-06
0.76171875, 2.3291015625E-06
0.762786865234375, 2.29156494140625E-06
0.76385498046875, 2.30194091796875E-06
0.764923095703125, 2.26287841796875E-06
0.7659912109375, 2.25677490234375E-06
0.767059326171875, 2.2406005859375E-06
0.76812744140625, 2.2314453125E-06
0.769195556640625, 2.21527099609375E-06
0.770263671875, 2.19024658203125E-06
0.771331787109375, 2.20306396484375E-06
0.77239990234375, 2.1685791015625E-06
0.773468017578125, 2.1734619140625E-06
0.7745361328125, 2.13623046875E-06
0.775604248046875, 2.161865234375E-06
0.77667236328125, 2.11761474609375E-06
0.777740478515625, 2.13104248046875E-06
0.77880859375, 2.09136962890625E-06
0.779876708984375, 2.119140625E-06
0.78094482421875, 2.073974609375E-06
0.782012939453125, 2.08587646484375E-06
0.7830810546875, 2.05841064453125E-06
0.784149169921875, 2.07183837890625E-06
0.78521728515625, 2.04376220703125E-06
0.786285400390625, 2.03826904296875E-06
0.787353515625, 2.03887939453125E-06
0.788421630859375, 2.0245361328125E-06
0.78948974609375, 2.020263671875E-06
0.790557861328125, 1.9964599609375E-06
0.7916259765625, 2.01568603515625E-06
0.792694091796875, 1.98516845703125E-06
0.79376220703125, 1.9940185546875E-06
0.794830322265625, 1.96136474609375E-06
0.7958984375, 1.9915771484375E-06
0.796966552734375, 1.9488525390625E-06
0.79803466796875, 1.9671630859375E-06
0.799102783203125, 1.93328857421875E-06
0.8001708984375, 1.96014404296875E-06
0.801239013671875, 1.9244384765625E-06
0.80230712890625, 1.9329833984375E-06
0.803375244140625, 1.91650390625E-06
0.804443359375, 1.92413330078125E-06
0.805511474609375, 1.90521240234375E-06
0.80657958984375, 1.89910888671875E-06
0.807647705078125, 1.90338134765625E-06
0.8087158203125, 1.88812255859375E-06
0.809783935546875, 1.888427734375E-06
0.81085205078125, 1.8658447265625E-06
0.811920166015625, 1.88995361328125E-06
0.81298828125, 1.85699462890625E-06
0.814056396484375, 1.8701171875E-06
0.81512451171875, 1.83807373046875E-06
0.816192626953125, 1.86798095703125E-06
0.8172607421875, 1.829833984375E-06
0.818328857421875, 1.84600830078125E-06
0.81939697265625, 1.81915283203125E-06
0.820465087890625, 1.8408203125E-06
0.821533203125, 1.8109130859375E-06
0.822601318359375, 1.81732177734375E-06
0.82366943359375, 1.8060302734375E-06
0.824737548828125, 1.81121826171875E-06
0.8258056640625, 1.79718017578125E-06
0.826873779296875, 1.78955078125E-06
0.82794189453125, 1.79931640625E-06
0.829010009765625, 1.78070068359375E-06
0.830078125, 1.7864990234375E-06
0.831146240234375, 1.761474609375E-06
0.83221435546875, 1.7877197265625E-06
0.833282470703125, 1.75537109375E-06
0.8343505859375, 1.771240234375E-06
0.835418701171875, 1.7425537109375E-06
0.83648681640625, 1.77032470703125E-06
0.837554931640625, 1.7376708984375E-06
0.838623046875, 1.75140380859375E-06
0.839691162109375, 1.72943115234375E-06
0.84075927734375, 1.74835205078125E-06
0.841827392578125, 1.7236328125E-06
0.8428955078125, 1.728515625E-06
0.843963623046875, 1.72271728515625E-06
0.84503173828125, 1.72393798828125E-06
0.846099853515625, 1.7144775390625E-06
0.84716796875, 1.7041015625E-06
0.848236083984375, 1.71722412109375E-06
0.84930419921875, 1.69830322265625E-06
0.850372314453125, 1.70654296875E-06
0.8514404296875, 1.6827392578125E-06
0.852508544921875, 1.70989990234375E-06
0.85357666015625, 1.6778564453125E-06
0.854644775390625, 1.69403076171875E-06
0.855712890625, 1.66595458984375E-06
0.856781005859375, 1.6949462890625E-06
0.85784912109375, 1.66259765625E-06
0.858917236328125, 1.676025390625E-06
0.8599853515625, 1.65802001953125E-06
0.861053466796875, 1.673583984375E-06
0.86212158203125, 1.65283203125E-06
0.863189697265625, 1.6546630859375E-06
0.8642578125, 1.65435791015625E-06
0.865325927734375, 1.650390625E-06
0.86639404296875, 1.6473388671875E-06
0.867462158203125, 1.6326904296875E-06
0.8685302734375, 1.65130615234375E-06
0.869598388671875, 1.6290283203125E-06
0.87066650390625, 1.640625E-06
0.871734619140625, 1.61590576171875E-06
0.872802734375, 1.64276123046875E-06
0.873870849609375, 1.6119384765625E-06
0.87493896484375, 1.62841796875E-06
0.876007080078125, 1.6033935546875E-06
0.8770751953125, 1.62994384765625E-06
0.878143310546875, 1.59942626953125E-06
0.87921142578125, 1.612548828125E-06
0.880279541015625, 1.5972900390625E-06
0.88134765625, 1.61041259765625E-06
0.882415771484375, 1.5924072265625E-06
0.88348388671875, 1.59210205078125E-06
0.884552001953125, 1.5966796875E-06
0.8856201171875, 1.58843994140625E-06
0.886688232421875, 1.58966064453125E-06
0.88775634765625, 1.57257080078125E-06
0.888824462890625, 1.59454345703125E-06
0.889892578125, 1.5704345703125E-06
0.890960693359375, 1.5826416015625E-06
0.89202880859375, 1.5594482421875E-06
0.893096923828125, 1.58599853515625E-06
0.8941650390625, 1.5557861328125E-06
0.895233154296875, 1.57196044921875E-06
0.89630126953125, 1.54937744140625E-06
0.897369384765625, 1.57257080078125E-06
0.8984375, 1.54632568359375E-06
0.899505615234375, 1.556396484375E-06
0.90057373046875, 1.54693603515625E-06
0.901641845703125, 1.55426025390625E-06
0.9027099609375, 1.54266357421875E-06
0.903778076171875, 1.5386962890625E-06
0.90484619140625, 1.54571533203125E-06
0.905914306640625, 1.53533935546875E-06
0.906982421875, 1.5386962890625E-06
0.908050537109375, 1.52252197265625E-06
0.90911865234375, 1.54205322265625E-06
0.910186767578125, 1.5191650390625E-06
0.9112548828125, 1.5325927734375E-06
0.912322998046875, 1.5081787109375E-06
0.91339111328125, 1.5362548828125E-06
0.914459228515625, 1.50634765625E-06
0.91552734375, 1.52191162109375E-06
0.916595458984375, 1.50238037109375E-06
0.91766357421875, 1.5228271484375E-06
0.918731689453125, 1.5008544921875E-06
0.9197998046875, 1.50665283203125E-06
0.920867919921875, 1.49993896484375E-06
0.92193603515625, 1.50604248046875E-06
0.923004150390625, 1.49658203125E-06
0.924072265625, 1.4910888671875E-06
0.925140380859375, 1.50115966796875E-06
0.92620849609375, 1.4886474609375E-06
0.927276611328125, 1.4947509765625E-06
0.9283447265625, 1.4752197265625E-06
0.929412841796875, 1.500244140625E-06
0.93048095703125, 1.47308349609375E-06
0.931549072265625, 1.4886474609375E-06
0.9326171875, 1.46453857421875E-06
0.933685302734375, 1.490478515625E-06
0.93475341796875, 1.46514892578125E-06
0.935821533203125, 1.47705078125E-06
0.9368896484375, 1.461181640625E-06
0.937957763671875, 1.478271484375E-06
0.93902587890625, 1.458740234375E-06
0.940093994140625, 1.4630126953125E-06
0.941162109375, 1.4599609375E-06
0.942230224609375, 1.46240234375E-06
0.94329833984375, 1.456298828125E-06
0.944366455078125, 1.4471435546875E-06
0.9454345703125, 1.46148681640625E-06
0.946502685546875, 1.4459228515625E-06
0.94757080078125, 1.45355224609375E-06
0.948638916015625, 1.4337158203125E-06
0.94970703125, 1.4593505859375E-06
0.950775146484375, 1.43310546875E-06
0.95184326171875, 1.44775390625E-06
0.952911376953125, 1.4263916015625E-06
0.9539794921875, 1.4508056640625E-06
0.955047607421875, 1.42547607421875E-06
0.95611572265625, 1.436767578125E-06
0.957183837890625, 1.4239501953125E-06
0.958251953125, 1.43707275390625E-06
0.959320068359375, 1.42181396484375E-06
0.96038818359375, 1.42303466796875E-06
0.961456298828125, 1.42425537109375E-06
0.9625244140625, 1.42303466796875E-06
0.963592529296875, 1.41845703125E-06
0.96466064453125, 1.40960693359375E-06
0.965728759765625, 1.4251708984375E-06
0.966796875, 1.40869140625E-06
0.967864990234375, 1.4166259765625E-06
0.96893310546875, 1.39801025390625E-06
0.970001220703125, 1.42242431640625E-06
0.9710693359375, 1.396484375E-06
0.972137451171875, 1.41082763671875E-06
0.97320556640625, 1.390380859375E-06
0.974273681640625, 1.41387939453125E-06
0.975341796875, 1.38916015625E-06
0.976409912109375, 1.4013671875E-06
0.97747802734375, 1.387939453125E-06
0.978546142578125, 1.40167236328125E-06
0.9796142578125, 1.38671875E-06
0.980682373046875, 1.387939453125E-06
0.98175048828125, 1.39068603515625E-06
0.982818603515625, 1.3861083984375E-06
0.98388671875, 1.38671875E-06
0.984954833984375, 1.37481689453125E-06
0.98602294921875, 1.3916015625E-06
0.987091064453125, 1.3739013671875E-06
0.9881591796875, 1.38275146484375E-06
0.989227294921875, 1.36444091796875E-06
0.99029541015625, 1.38885498046875E-06
0.991363525390625, 1.36260986328125E-06
0.992431640625, 1.3787841796875E-06
0.993499755859375, 1.35711669921875E-06
0.99456787109375, 1.38092041015625E-06
0.995635986328125, 1.35650634765625E-06
0.9967041015625, 1.36749267578125E-06
0.997772216796875, 1.3580322265625E-06
0.99884033203125, 1.3677978515625E-06
0.999908447265625, 1.35528564453125E-06
1.0009765625, 1.3555908203125E-06
0.999908447265625, 1.353759765625E-06
0.99884033203125, 1.34307861328125E-06
0.997772216796875, 1.33880615234375E-06
0.9967041015625, 1.3226318359375E-06
0.995635986328125, 1.337890625E-06
0.99456787109375, 1.31500244140625E-06
0.993499755859375, 1.3232421875E-06
0.992431640625, 1.29913330078125E-06
0.991363525390625, 1.32171630859375E-06
0.99029541015625, 1.29302978515625E-06
0.989227294921875, 1.3055419921875E-06
0.9881591796875, 1.2841796875E-06
0.987091064453125, 1.3031005859375E-06
0.98602294921875, 1.27838134765625E-06
0.984954833984375, 1.285400390625E-06
0.98388671875, 1.27532958984375E-06
0.982818603515625, 1.28173828125E-06
0.98175048828125, 1.26953125E-06
0.980682373046875, 1.2640380859375E-06
0.9796142578125, 1.27105712890625E-06
0.978546142578125, 1.25885009765625E-06
0.97747802734375, 1.26312255859375E-06
0.976409912109375, 1.24420166015625E-06
0.975341796875, 1.26434326171875E-06
0.974273681640625, 1.241455078125E-06
0.97320556640625, 1.25274658203125E-06
0.972137451171875, 1.23077392578125E-06
0.9710693359375, 1.25457763671875E-06
0.970001220703125, 1.22711181640625E-06
0.96893310546875, 1.24053955078125E-06
0.967864990234375, 1.22161865234375E-06
0.966796875, 1.240234375E-06
0.965728759765625, 1.21795654296875E-06
0.96466064453125, 1.22406005859375E-06
0.963592529296875, 1.219482421875E-06
0.9625244140625, 1.22161865234375E-06
0.961456298828125, 1.21337890625E-06
0.96038818359375, 1.2066650390625E-06
0.959320068359375, 1.21795654296875E-06
0.958251953125, 1.2042236328125E-06
0.957183837890625, 1.209716796875E-06
0.95611572265625, 1.1920166015625E-06
0.955047607421875, 1.21429443359375E-06
0.9539794921875, 1.1895751953125E-06
0.952911376953125, 1.20391845703125E-06
0.95184326171875, 1.18072509765625E-06
0.950775146484375, 1.2054443359375E-06
0.94970703125, 1.17950439453125E-06
0.948638916015625, 1.19232177734375E-06
0.94757080078125, 1.17645263671875E-06
0.946502685546875, 1.19171142578125E-06
0.9454345703125, 1.17401123046875E-06
0.944366455078125, 1.177978515625E-06
0.94329833984375, 1.17645263671875E-06
0.942230224609375, 1.175537109375E-06
0.941162109375, 1.1724853515625E-06
0.940093994140625, 1.1627197265625E-06
0.93902587890625, 1.17706298828125E-06
0.937957763671875, 1.16119384765625E-06
0.9368896484375, 1.16943359375E-06
0.935821533203125, 1.15081787109375E-06
0.93475341796875, 1.17401123046875E-06
0.933685302734375, 1.14837646484375E-06
0.9326171875, 1.1639404296875E-06
0.931549072265625, 1.1419677734375E-06
0.93048095703125, 1.16607666015625E-06
0.929412841796875, 1.14166259765625E-06
0.9283447265625, 1.1529541015625E-06
0.927276611328125, 1.1407470703125E-06
0.92620849609375, 1.15234375E-06
0.925140380859375, 1.13861083984375E-06
0.924072265625, 1.1395263671875E-06
0.923004150390625, 1.141357421875E-06
0.92193603515625, 1.138916015625E-06
0.920867919921875, 1.13739013671875E-06
0.9197998046875, 1.12640380859375E-06
0.918731689453125, 1.14288330078125E-06
0.91766357421875, 1.12457275390625E-06
0.916595458984375, 1.13525390625E-06
0.91552734375, 1.11480712890625E-06
0.914459228515625, 1.14013671875E-06
0.91339111328125, 1.1138916015625E-06
0.912322998046875, 1.1297607421875E-06
0.9112548828125, 1.11053466796875E-06
0.910186767578125, 1.131591796875E-06
0.90911865234375, 1.109619140625E-06
0.908050537109375, 1.1187744140625E-06
0.906982421875, 1.10931396484375E-06
0.905914306640625, 1.1187744140625E-06
0.90484619140625, 1.10809326171875E-06
0.903778076171875, 1.10565185546875E-06
0.9027099609375, 1.11297607421875E-06
0.901641845703125, 1.104736328125E-06
0.90057373046875, 1.10809326171875E-06
0.899505615234375, 1.09375E-06
0.8984375, 1.1138916015625E-06
0.897369384765625, 1.0931396484375E-06
0.89630126953125, 1.104736328125E-06
0.895233154296875, 1.08551025390625E-06
0.8941650390625, 1.11053466796875E-06
0.893096923828125, 1.08489990234375E-06
0.89202880859375, 1.099853515625E-06
0.890960693359375, 1.08154296875E-06
0.889892578125, 1.1016845703125E-06
0.888824462890625, 1.08184814453125E-06
0.88775634765625, 1.08856201171875E-06
0.886688232421875, 1.0833740234375E-06
0.8856201171875, 1.08856201171875E-06
0.884552001953125, 1.08123779296875E-06
0.88348388671875, 1.0760498046875E-06
0.882415771484375, 1.08734130859375E-06
0.88134765625, 1.075439453125E-06
0.880279541015625, 1.0809326171875E-06
0.87921142578125, 1.065673828125E-06
0.878143310546875, 1.08673095703125E-06
0.8770751953125, 1.06597900390625E-06
0.876007080078125, 1.0772705078125E-06
0.87493896484375, 1.05926513671875E-06
0.873870849609375, 1.0821533203125E-06
0.872802734375, 1.05865478515625E-06
0.871734619140625, 1.07147216796875E-06
0.87066650390625, 1.05712890625E-06
0.869598388671875, 1.0736083984375E-06
0.8685302734375, 1.055908203125E-06
0.867462158203125, 1.06109619140625E-06
0.86639404296875, 1.05865478515625E-06
0.865325927734375, 1.06231689453125E-06
0.8642578125, 1.05621337890625E-06
0.863189697265625, 1.0498046875E-06
0.86212158203125, 1.0626220703125E-06
0.861053466796875, 1.04888916015625E-06
0.8599853515625, 1.0565185546875E-06
0.858917236328125, 1.0406494140625E-06
0.85784912109375, 1.06201171875E-06
0.856781005859375, 1.03973388671875E-06
0.855712890625, 1.05316162109375E-06
0.854644775390625, 1.03424072265625E-06
0.85357666015625, 1.05743408203125E-06
0.852508544921875, 1.03485107421875E-06
0.8514404296875, 1.046142578125E-06
0.850372314453125, 1.03363037109375E-06
0.84930419921875, 1.04766845703125E-06
0.848236083984375, 1.03302001953125E-06
0.84716796875, 1.0357666015625E-06
0.846099853515625, 1.036376953125E-06
0.84503173828125, 1.03607177734375E-06
0.843963623046875, 1.033935546875E-06
0.8428955078125, 1.025390625E-06
0.841827392578125, 1.03912353515625E-06
0.84075927734375, 1.02569580078125E-06
0.839691162109375, 1.03271484375E-06
0.838623046875, 1.01715087890625E-06
0.837554931640625, 1.03851318359375E-06
0.83648681640625, 1.015625E-06
0.835418701171875, 1.0308837890625E-06
0.8343505859375, 1.0113525390625E-06
0.833282470703125, 1.03363037109375E-06
0.83221435546875, 1.01226806640625E-06
0.831146240234375, 1.02294921875E-06
0.830078125, 1.01318359375E-06
0.829010009765625, 1.02294921875E-06
0.82794189453125, 1.01226806640625E-06
0.826873779296875, 1.01226806640625E-06
0.8258056640625, 1.01593017578125E-06
0.824737548828125, 1.01226806640625E-06
0.82366943359375, 1.01226806640625E-06
0.822601318359375, 1.00250244140625E-06
0.821533203125, 1.01776123046875E-06
0.820465087890625, 1.0015869140625E-06
0.81939697265625, 1.0113525390625E-06
0.818328857421875, 9.9456787109375E-07
0.8172607421875, 1.01654052734375E-06
0.816192626953125, 9.9456787109375E-07
0.81512451171875, 1.0076904296875E-06
0.814056396484375, 9.912109375E-07
0.81298828125, 1.01043701171875E-06
0.811920166015625, 9.918212890625E-07
0.81085205078125, 1.0003662109375E-06
0.809783935546875, 9.92431640625E-07
0.8087158203125, 1.00067138671875E-06
0.807647705078125, 9.9151611328125E-07
0.80657958984375, 9.9029541015625E-07
0.805511474609375, 9.9609375E-07
0.804443359375, 9.9029541015625E-07
0.803375244140625, 9.9212646484375E-07
0.80230712890625, 9.8052978515625E-07
0.801239013671875, 9.979248046875E-07
0.8001708984375, 9.8052978515625E-07
0.799102783203125, 9.912109375E-07
0.79803466796875, 9.7381591796875E-07
0.796966552734375, 9.9578857421875E-07
0.7958984375, 9.735107421875E-07
0.794830322265625, 9.8663330078125E-07
0.79376220703125, 9.710693359375E-07
0.792694091796875, 9.8907470703125E-07
0.7916259765625, 9.7137451171875E-07
0.790557861328125, 9.7869873046875E-07
0.78948974609375, 9.735107421875E-07
0.788421630859375, 9.7900390625E-07
0.787353515625, 9.716796875E-07
0.786285400390625, 9.68017578125E-07
0.78521728515625, 9.7686767578125E-07
0.784149169921875, 9.68017578125E-07
0.7830810546875, 9.7259521484375E-07
0.782012939453125, 9.5977783203125E-07
0.78094482421875, 9.7747802734375E-07
0.779876708984375, 9.5947265625E-07
0.77880859375, 9.7015380859375E-07
0.777740478515625, 9.539794921875E-07
0.77667236328125, 9.7412109375E-07
0.775604248046875, 9.527587890625E-07
0.7745361328125, 9.65576171875E-07
0.773468017578125, 9.5123291015625E-07
0.77239990234375, 9.674072265625E-07
0.771331787109375, 9.50927734375E-07
0.770263671875, 9.5733642578125E-07
0.769195556640625, 9.527587890625E-07
0.76812744140625, 9.5733642578125E-07
0.767059326171875, 9.50927734375E-07
0.7659912109375, 9.4757080078125E-07
0.764923095703125, 9.55810546875E-07
0.76385498046875, 9.466552734375E-07
0.762786865234375, 9.5184326171875E-07
0.76171875, 9.3780517578125E-07
0.760650634765625, 9.564208984375E-07
0.75958251953125, 9.368896484375E-07
0.758514404296875, 9.4940185546875E-07
0.7574462890625, 9.326171875E-07
0.756378173828125, 9.5184326171875E-07
0.75531005859375, 9.3292236328125E-07
0.754241943359375, 9.4207763671875E-07
0.753173828125, 9.3231201171875E-07
0.752105712890625, 9.4451904296875E-07
0.75103759765625, 9.3017578125E-07
0.749969482421875, 9.344482421875E-07
0.7489013671875, 9.3170166015625E-07
0.747833251953125, 9.33837890625E-07
0.74676513671875, 9.28955078125E-07
0.745697021484375, 9.24072265625E-07
0.74462890625, 9.33837890625E-07
0.743560791015625, 9.2254638671875E-07
0.74249267578125, 9.2864990234375E-07
0.741424560546875, 9.1400146484375E-07
0.7403564453125, 9.3292236328125E-07
0.739288330078125, 9.1400146484375E-07
0.73822021484375, 9.246826171875E-07
0.737152099609375, 9.0911865234375E-07
0.736083984375, 9.27734375E-07
0.735015869140625, 9.0850830078125E-07
0.73394775390625, 9.173583984375E-07
0.732879638671875, 9.063720703125E-07
0.7318115234375, 9.185791015625E-07
0.730743408203125, 9.0484619140625E-07
0.72967529296875, 9.0606689453125E-07
0.728607177734375, 9.06982421875E-07
0.7275390625, 9.0545654296875E-07
0.726470947265625, 9.027099609375E-07
0.72540283203125, 8.94775390625E-07
0.724334716796875, 9.0576171875E-07
0.7232666015625, 8.941650390625E-07
0.722198486328125, 8.984375E-07
0.72113037109375, 8.856201171875E-07
0.720062255859375, 9.027099609375E-07
0.718994140625, 8.82568359375E-07
0.717926025390625, 8.9324951171875E-07
0.71685791015625, 8.770751953125E-07
0.715789794921875, 8.9385986328125E-07
0.7147216796875, 8.75244140625E-07
0.713653564453125, 8.819580078125E-07
0.71258544921875, 8.734130859375E-07
0.711517333984375, 8.807373046875E-07
0.71044921875, 8.69140625E-07
0.709381103515625, 8.6822509765625E-07
0.70831298828125, 8.697509765625E-07
0.707244873046875, 8.6578369140625E-07
0.7061767578125, 8.6273193359375E-07
0.705108642578125, 8.544921875E-07
0.70404052734375, 8.648681640625E-07
0.702972412109375, 8.514404296875E-07
0.701904296875, 8.5479736328125E-07
0.700836181640625, 8.4075927734375E-07
0.69976806640625, 8.55712890625E-07
0.698699951171875, 8.3526611328125E-07
0.6976318359375, 8.441162109375E-07
0.696563720703125, 8.28857421875E-07
0.69549560546875, 8.4136962890625E-07
0.694427490234375, 8.2244873046875E-07
0.693359375, 8.2763671875E-07
0.692291259765625, 8.184814453125E-07
0.69122314453125, 8.221435546875E-07
0.690155029296875, 8.1024169921875E-07
0.6890869140625, 8.074951171875E-07
0.688018798828125, 8.0718994140625E-07
0.68695068359375, 7.99560546875E-07
0.685882568359375, 7.9620361328125E-07
0.684814453125, 7.84912109375E-07
0.683746337890625, 7.928466796875E-07
0.68267822265625, 7.7667236328125E-07
0.681610107421875, 7.7911376953125E-07
0.6805419921875, 7.6202392578125E-07
0.679473876953125, 7.7301025390625E-07
0.67840576171875, 7.5225830078125E-07
0.677337646484375, 7.5592041015625E-07
0.67626953125, 7.3944091796875E-07
0.675201416015625, 7.470703125E-07
0.67413330078125, 7.2784423828125E-07
0.673065185546875, 7.2845458984375E-07
0.6719970703125, 7.16552734375E-07
0.670928955078125, 7.1624755859375E-07
0.66986083984375, 7.0220947265625E-07
0.668792724609375, 6.94580078125E-07
0.667724609375, 6.9122314453125E-07
0.666656494140625, 6.7962646484375E-07
0.66558837890625, 6.732177734375E-07
0.664520263671875, 6.573486328125E-07
0.6634521484375, 6.585693359375E-07
0.662384033203125, 6.396484375E-07
0.66131591796875, 6.3751220703125E-07
0.660247802734375, 6.182861328125E-07
0.6591796875, 6.21337890625E-07
0.658111572265625, 5.9906005859375E-07
0.65704345703125, 5.95703125E-07
0.655975341796875, 5.76171875E-07
0.6549072265625, 5.76171875E-07
0.653839111328125, 5.5389404296875E-07
0.65277099609375, 5.4656982421875E-07
0.651702880859375, 5.316162109375E-07
0.650634765625, 5.2276611328125E-07
0.649566650390625, 5.0506591796875E-07
0.64849853515625, 4.89501953125E-07
0.647430419921875, 4.80194091796875E-07
0.6463623046875, 4.62554931640625E-07
0.645294189453125, 4.49676513671875E-07
0.64422607421875, 4.2791748046875E-07
0.643157958984375, 4.20745849609375E-07
0.64208984375, 3.95355224609375E-07
0.641021728515625, 3.8519287109375E-07
0.63995361328125, 3.59619140625E-07
0.638885498046875, 3.53790283203125E-07
0.6378173828125, 3.251953125E-07
0.636749267578125, 3.1317138671875E-07
0.63568115234375, 2.88330078125E-07
0.634613037109375, 2.7667236328125E-07
0.633544921875, 2.501220703125E-07
0.632476806640625, 2.32208251953125E-07
0.63140869140625, 2.10662841796875E-07
0.630340576171875, 1.92169189453125E-07
0.6292724609375, 1.66961669921875E-07
0.628204345703125, 1.444091796875E-07
0.62713623046875, 1.258544921875E-07
0.626068115234375, 9.930419921875E-08
0.625, 7.7362060546875E-08
0.623931884765625, 4.58984375E-08
0.62286376953125, 3.048095703125E-08
0.621795654296875, -1.3763427734375E-09
0.6207275390625, -2.21771240234375E-08
0.619659423828125, -5.4229736328125E-08
0.61859130859375, -7.3486328125E-08
0.617523193359375, -1.07330322265625E-07
0.616455078125, -1.3116455078125E-07
0.615386962890625, -1.63665771484375E-07
0.61431884765625, -1.8695068359375E-07
0.613250732421875, -2.20916748046875E-07
0.6121826171875, -2.4908447265625E-07
0.611114501953125, -2.803955078125E-07
0.61004638671875, -3.09783935546875E-07
0.608978271484375, -3.41888427734375E-07
0.60791015625, -3.76434326171875E-07
0.606842041015625, -4.052734375E-07
0.60577392578125, -4.41070556640625E-07
0.604705810546875, -4.7265625E-07
0.6036376953125, -5.113525390625E-07
0.602569580078125, -5.40008544921875E-07
0.60150146484375, -5.80169677734375E-07
0.600433349609375, -6.12518310546875E-07
0.599365234375, -6.512451171875E-07
0.598297119140625, -6.8328857421875E-07
0.59722900390625, -7.257080078125E-07
0.596160888671875, -7.6080322265625E-07
0.5950927734375, -8.0108642578125E-07
0.594024658203125, -8.367919921875E-07
0.59295654296875, -8.7921142578125E-07
0.591888427734375, -9.1827392578125E-07
0.5908203125, -9.58251953125E-07
0.589752197265625, -9.9884033203125E-07
0.58868408203125, -1.0406494140625E-06
0.587615966796875, -1.08428955078125E-06
0.5865478515625, -1.124267578125E-06
0.585479736328125, -1.16943359375E-06
0.58441162109375, -1.21124267578125E-06
0.583343505859375, -1.25579833984375E-06
0.582275390625, -1.29730224609375E-06
0.581207275390625, -1.34490966796875E-06
0.58013916015625, -1.3885498046875E-06
0.579071044921875, -1.4361572265625E-06
0.5780029296875, -1.48101806640625E-06
0.576934814453125, -1.52862548828125E-06
0.57586669921875, -1.57623291015625E-06
0.574798583984375, -1.62384033203125E-06
0.57373046875, -1.6717529296875E-06
0.572662353515625, -1.7205810546875E-06
0.57159423828125, -1.77032470703125E-06
0.570526123046875, -1.81915283203125E-06
0.5694580078125, -1.86859130859375E-06
0.568389892578125, -1.9195556640625E-06
0.56732177734375, -1.97113037109375E-06
0.566253662109375, -2.021484375E-06
0.565185546875, -2.07305908203125E-06
0.564117431640625, -2.12554931640625E-06
0.56304931640625, -2.1783447265625E-06
0.561981201171875, -2.2308349609375E-06
0.5609130859375, -2.2833251953125E-06
0.559844970703125, -2.33795166015625E-06
0.55877685546875, -2.3931884765625E-06
0.557708740234375, -2.44598388671875E-06
0.556640625, -2.50213623046875E-06
0.555572509765625, -2.55645751953125E-06
0.55450439453125, -2.61322021484375E-06
0.553436279296875, -2.6678466796875E-06
0.5523681640625, -2.7252197265625E-06
0.551300048828125, -2.78106689453125E-06
0.55023193359375, -2.83935546875E-06
0.549163818359375, -2.894287109375E-06
0.548095703125, -2.9541015625E-06
0.547027587890625, -3.01055908203125E-06
0.54595947265625, -3.07098388671875E-06
0.544891357421875, -3.12713623046875E-06
0.5438232421875, -3.18634033203125E-06
0.542755126953125, -3.2440185546875E-06
0.54168701171875, -3.3050537109375E-06
0.540618896484375, -3.3642578125E-06
0.53955078125, -3.4259033203125E-06
0.538482666015625, -3.486328125E-06
0.53741455078125, -3.5455322265625E-06
0.536346435546875, -3.607177734375E-06
0.5352783203125, -3.66790771484375E-06
0.534210205078125, -3.73138427734375E-06
0.53314208984375, -3.79119873046875E-06
0.532073974609375, -3.85528564453125E-06
0.531005859375, -3.91510009765625E-06
0.529937744140625, -3.98193359375E-06
0.52886962890625, -4.04022216796875E-06
0.527801513671875, -4.10614013671875E-06
0.5267333984375, -4.166259765625E-06
0.525665283203125, -4.2333984375E-06
0.52459716796875, -4.2926025390625E-06
0.523529052734375, -4.3609619140625E-06
0.5224609375, -4.42230224609375E-06
0.521392822265625, -4.488525390625E-06
0.52032470703125, -4.552001953125E-06
0.519256591796875, -4.61700439453125E-06
0.5181884765625, -4.6826171875E-06
0.517120361328125, -4.7467041015625E-06
0.51605224609375, -4.8126220703125E-06
0.514984130859375, -4.876708984375E-06
0.513916015625, -4.94598388671875E-06
0.512847900390625, -5.008544921875E-06
0.51177978515625, -5.07659912109375E-06
0.510711669921875, -5.13885498046875E-06
0.5096435546875, -5.21026611328125E-06
0.508575439453125, -5.27130126953125E-06
0.50750732421875, -5.341796875E-06
0.506439208984375, -5.40435791015625E-06
0.50537109375, -5.4766845703125E-06
0.504302978515625, -5.53497314453125E-06
0.50323486328125, -5.60638427734375E-06
0.502166748046875, -5.6695556640625E-06
0.5010986328125, -5.74127197265625E-06
0.500030517578125, -5.8050537109375E-06
0.49896240234375, -5.87158203125E-06
0.497894287109375, -5.941162109375E-06
0.496826171875, -6.007080078125E-06
0.495758056640625, -6.072998046875E-06
0.49468994140625, -6.1370849609375E-06
0.493621826171875, -6.2103271484375E-06
0.4925537109375, -6.2713623046875E-06
0.491485595703125, -6.341552734375E-06
0.49041748046875, -6.4056396484375E-06
0.489349365234375, -6.4788818359375E-06
0.48828125, -6.5399169921875E-06
0.487213134765625, -6.6131591796875E-06
0.48614501953125, -6.6741943359375E-06
0.485076904296875, -6.75048828125E-06
0.4840087890625, -6.8115234375E-06
0.482940673828125, -6.8817138671875E-06
0.48187255859375, -6.94580078125E-06
0.480804443359375, -7.01904296875E-06
0.479736328125, -7.080078125E-06
0.478668212890625, -7.147216796875E-06
0.47760009765625, -7.2174072265625E-06
0.476531982421875, -7.281494140625E-06
0.4754638671875, -7.3516845703125E-06
0.474395751953125, -7.4127197265625E-06
0.47332763671875, -7.489013671875E-06
0.472259521484375, -7.5469970703125E-06
0.47119140625, -7.6202392578125E-06
0.470123291015625, -7.67822265625E-06
0.46905517578125, -7.7545166015625E-06
0.467987060546875, -7.8125E-06
0.4669189453125, -7.8826904296875E-06
0.465850830078125, -7.9437255859375E-06
0.46478271484375, -8.0169677734375E-06
0.463714599609375, -8.0718994140625E-06
0.462646484375, -8.14208984375E-06
0.461578369140625, -8.2061767578125E-06
0.46051025390625, -8.2763671875E-06
0.459442138671875, -8.3343505859375E-06
0.4583740234375, -8.4014892578125E-06
0.457305908203125, -8.4686279296875E-06
0.45623779296875, -8.5296630859375E-06
0.455169677734375, -8.59375E-06
0.4541015625, -8.6517333984375E-06
0.453033447265625, -8.721923828125E-06
0.45196533203125, -8.7799072265625E-06
0.450897216796875, -8.8470458984375E-06
0.4498291015625, -8.9019775390625E-06
0.448760986328125, -8.9752197265625E-06
0.44769287109375, -9.027099609375E-06
0.446624755859375, -9.09423828125E-06
0.445556640625, -9.149169921875E-06
0.444488525390625, -9.2193603515625E-06
0.44342041015625, -9.2681884765625E-06
0.442352294921875, -9.3353271484375E-06
0.4412841796875, -9.3902587890625E-06
0.440216064453125, -9.4512939453125E-06
0.43914794921875, -9.50927734375E-06
0.438079833984375, -9.5672607421875E-06
0.43701171875, -9.6282958984375E-06
0.435943603515625, -9.68017578125E-06
0.43487548828125, -9.7381591796875E-06
0.433807373046875, -9.7900390625E-06
0.4327392578125, -9.857177734375E-06
0.431671142578125, -9.9029541015625E-06
0.43060302734375, -9.9639892578125E-06
0.429534912109375, -1.0009765625E-05
0.428466796875, -1.0076904296875E-05
0.427398681640625, -1.01165771484375E-05
0.42633056640625, -1.0174560546875E-05
0.425262451171875, -1.021728515625E-05
0.4241943359375, -1.02783203125E-05
0.423126220703125, -1.0321044921875E-05
0.42205810546875, -1.03759765625E-05
0.420989990234375, -1.04217529296875E-05
0.419921875, -1.04736328125E-05
0.418853759765625, -1.0516357421875E-05
0.41778564453125, -1.05621337890625E-05
0.416717529296875, -1.0614013671875E-05
0.4156494140625, -1.065673828125E-05
0.414581298828125, -1.07025146484375E-05
0.41351318359375, -1.07391357421875E-05
0.412445068359375, -1.07940673828125E-05
0.411376953125, -1.08245849609375E-05
0.410308837890625, -1.08734130859375E-05
0.40924072265625, -1.090087890625E-05
0.408172607421875, -1.09527587890625E-05
0.4071044921875, -1.09771728515625E-05
0.406036376953125, -1.102294921875E-05
0.40496826171875, -1.10504150390625E-05
0.403900146484375, -1.109619140625E-05
0.40283203125, -1.112060546875E-05
0.401763916015625, -1.11572265625E-05
0.40069580078125, -1.1187744140625E-05
0.399627685546875, -1.121826171875E-05
0.3985595703125, -1.124267578125E-05
0.397491455078125, -1.126708984375E-05
0.39642333984375, -1.13006591796875E-05
0.395355224609375, -1.13189697265625E-05
0.394287109375, -1.1346435546875E-05
0.393218994140625, -1.1358642578125E-05
0.39215087890625, -1.13922119140625E-05
0.391082763671875, -1.13983154296875E-05
0.3900146484375, -1.14227294921875E-05
0.388946533203125, -1.142578125E-05
0.38787841796875, -1.14532470703125E-05
0.386810302734375, -1.14471435546875E-05
0.3857421875, -1.1468505859375E-05
0.384674072265625, -1.14654541015625E-05
0.38360595703125, -1.1480712890625E-05
0.382537841796875, -1.1474609375E-05
0.3814697265625, -1.14776611328125E-05
0.380401611328125, -1.14776611328125E-05
0.37933349609375, -1.1474609375E-05
0.378265380859375, -1.14654541015625E-05
0.377197265625, -1.14501953125E-05
0.376129150390625, -1.14501953125E-05
0.37506103515625, -1.142578125E-05
0.373992919921875, -1.141357421875E-05
0.3729248046875, -1.1383056640625E-05
0.371856689453125, -1.13739013671875E-05
0.37078857421875, -1.13311767578125E-05
0.369720458984375, -1.1309814453125E-05
0.36865234375, -1.12640380859375E-05
0.367584228515625, -1.124267578125E-05
0.36651611328125, -1.1181640625E-05
0.365447998046875, -1.11480712890625E-05
0.3643798828125, -1.10870361328125E-05
0.363311767578125, -1.1041259765625E-05
0.36224365234375, -1.0968017578125E-05
0.361175537109375, -1.0906982421875E-05
0.360107421875, -1.08367919921875E-05
0.359039306640625, -1.07574462890625E-05
0.35797119140625, -1.06719970703125E-05
0.356903076171875, -1.05743408203125E-05
0.3558349609375, -1.04888916015625E-05
0.354766845703125, -1.03668212890625E-05
0.35369873046875, -1.0260009765625E-05
0.352630615234375, -1.01226806640625E-05
0.3515625, -1.0009765625E-05
0.350494384765625, -9.844970703125E-06
0.34942626953125, -9.698486328125E-06
0.348358154296875, -9.515380859375E-06
0.3472900390625, -9.3536376953125E-06
0.346221923828125, -9.136962890625E-06
0.34515380859375, -8.9324951171875E-06
0.344085693359375, -8.697509765625E-06
0.343017578125, -8.4625244140625E-06
0.341949462890625, -8.184814453125E-06
0.34088134765625, -7.904052734375E-06
0.339813232421875, -7.6080322265625E-06
0.3387451171875, -7.2906494140625E-06
0.337677001953125, -6.9610595703125E-06
0.33660888671875, -6.6162109375E-06
0.335540771484375, -6.2896728515625E-06
0.33447265625, -5.9417724609375E-06
0.333404541015625, -5.6182861328125E-06
0.33233642578125, -5.2886962890625E-06
0.331268310546875, -5.0048828125E-06
0.3302001953125, -4.70458984375E-06
0.329132080078125, -4.45098876953125E-06
0.32806396484375, -4.18975830078125E-06
0.326995849609375, -3.9813232421875E-06
0.325927734375, -3.75335693359375E-06
0.324859619140625, -3.5711669921875E-06
0.32379150390625, -3.382568359375E-06
0.322723388671875, -3.23150634765625E-06
0.3216552734375, -3.0694580078125E-06
0.320587158203125, -2.93365478515625E-06
0.31951904296875, -2.806396484375E-06
0.318450927734375, -2.6898193359375E-06
0.3173828125, -2.579345703125E-06
0.316314697265625, -2.47344970703125E-06
0.31524658203125, -2.3919677734375E-06
0.314178466796875, -2.2967529296875E-06
0.3131103515625, -2.22503662109375E-06
0.312042236328125, -2.13775634765625E-06
0.31097412109375, -2.08831787109375E-06
0.309906005859375, -2.00775146484375E-06
0.308837890625, -1.96136474609375E-06
0.307769775390625, -1.8914794921875E-06
0.30670166015625, -1.8585205078125E-06
0.305633544921875, -1.79534912109375E-06
0.3045654296875, -1.7596435546875E-06
0.303497314453125, -1.71051025390625E-06
0.30242919921875, -1.68060302734375E-06
0.301361083984375, -1.63543701171875E-06
0.30029296875, -1.6033935546875E-06
0.299224853515625, -1.572265625E-06
0.29815673828125, -1.5411376953125E-06
0.297088623046875, -1.5130615234375E-06
0.2960205078125, -1.47918701171875E-06
0.294952392578125, -1.46514892578125E-06
0.29388427734375, -1.4306640625E-06
0.292816162109375, -1.41510009765625E-06
0.291748046875, -1.380615234375E-06
0.290679931640625, -1.3775634765625E-06
0.28961181640625, -1.3421630859375E-06
0.288543701171875, -1.3336181640625E-06
0.2874755859375, -1.3043212890625E-06
0.286407470703125, -1.302490234375E-06
0.28533935546875, -1.2725830078125E-06
0.284271240234375, -1.26434326171875E-06
0.283203125, -1.24359130859375E-06
0.282135009765625, -1.23779296875E-06
0.28106689453125, -1.217041015625E-06
0.279998779296875, -1.20452880859375E-06
0.2789306640625, -1.19476318359375E-06
0.277862548828125, -1.1810302734375E-06
0.27679443359375, -1.170654296875E-06
0.275726318359375, -1.1529541015625E-06
0.274658203125, -1.15325927734375E-06
0.273590087890625, -1.1334228515625E-06
0.27252197265625, -1.13037109375E-06
0.271453857421875, -1.10931396484375E-06
0.2703857421875, -1.11602783203125E-06
0.269317626953125, -1.09283447265625E-06
0.26824951171875, -1.09375E-06
0.267181396484375, -1.0748291015625E-06
0.26611328125, -1.07940673828125E-06
0.265045166015625, -1.060791015625E-06
0.26397705078125, -1.058349609375E-06
0.262908935546875, -1.0467529296875E-06
0.2618408203125, -1.0455322265625E-06
0.260772705078125, -1.03302001953125E-06
0.25970458984375, -1.02569580078125E-06
0.258636474609375, -1.02294921875E-06
0.257568359375, -1.0137939453125E-06
0.256500244140625, -1.009521484375E-06
0.25543212890625, -9.9639892578125E-07
0.254364013671875, -1.00128173828125E-06
0.2532958984375, -9.8602294921875E-07
0.252227783203125, -9.869384765625E-07
0.25115966796875, -9.710693359375E-07
0.250091552734375, -9.7991943359375E-07
0.2490234375, -9.6221923828125E-07
0.247955322265625, -9.6527099609375E-07
0.24688720703125, -9.5062255859375E-07
0.245819091796875, -9.5733642578125E-07
0.2447509765625, -9.423828125E-07
0.243682861328125, -9.4207763671875E-07
0.24261474609375, -9.3505859375E-07
0.241546630859375, -9.344482421875E-07
0.240478515625, -9.26513671875E-07
0.239410400390625, -9.2010498046875E-07
0.23834228515625, -9.2132568359375E-07
0.237274169921875, -9.124755859375E-07
0.2362060546875, -9.1217041015625E-07
0.235137939453125, -8.9996337890625E-07
0.23406982421875, -9.06982421875E-07
0.233001708984375, -8.935546875E-07
0.23193359375, -8.9691162109375E-07
0.230865478515625, -8.831787109375E-07
0.22979736328125, -8.92333984375E-07
0.228729248046875, -8.7677001953125E-07
0.2276611328125, -8.807373046875E-07
0.226593017578125, -8.7005615234375E-07
0.22552490234375, -8.7615966796875E-07
0.224456787109375, -8.642578125E-07
0.223388671875, -8.6334228515625E-07
0.222320556640625, -8.59375E-07
0.22125244140625, -8.58154296875E-07
0.220184326171875, -8.53271484375E-07
0.2191162109375, -8.4686279296875E-07
0.218048095703125, -8.5052490234375E-07
0.21697998046875, -8.4197998046875E-07
0.215911865234375, -8.4259033203125E-07
0.21484375, -8.3160400390625E-07
0.213775634765625, -8.4075927734375E-07
0.21270751953125, -8.2733154296875E-07
0.211639404296875, -8.3160400390625E-07
0.2105712890625, -8.197021484375E-07
0.209503173828125, -8.282470703125E-07
0.20843505859375, -8.154296875E-07
0.207366943359375, -8.1878662109375E-07
0.206298828125, -8.1085205078125E-07
0.205230712890625, -8.148193359375E-07
0.20416259765625, -8.056640625E-07
0.203094482421875, -8.0535888671875E-07
0.2020263671875, -8.0291748046875E-07
0.200958251953125, -8.0078125E-07
0.19989013671875, -7.9803466796875E-07
0.198822021484375, -7.9193115234375E-07
0.19775390625, -7.9681396484375E-07
0.196685791015625, -7.8826904296875E-07
0.19561767578125, -7.904052734375E-07
0.194549560546875, -7.7972412109375E-07
0.1934814453125, -7.8826904296875E-07
0.192413330078125, -7.7667236328125E-07
0.19134521484375, -7.8125E-07
0.190277099609375, -7.7056884765625E-07
0.189208984375, -7.781982421875E-07
0.188140869140625, -7.6751708984375E-07
0.18707275390625, -7.7056884765625E-07
0.186004638671875, -7.6385498046875E-07
0.1849365234375, -7.6690673828125E-07
0.183868408203125, -7.60498046875E-07
0.18280029296875, -7.5836181640625E-07
0.181732177734375, -7.5836181640625E-07
0.1806640625, -7.5531005859375E-07
0.179595947265625, -7.5408935546875E-07
0.17852783203125, -7.4798583984375E-07
0.177459716796875, -7.537841796875E-07
0.1763916015625, -7.4462890625E-07
0.175323486328125, -7.4798583984375E-07
0.17425537109375, -7.38525390625E-07
0.173187255859375, -7.464599609375E-07
0.172119140625, -7.3577880859375E-07
0.171051025390625, -7.4005126953125E-07
0.16998291015625, -7.3150634765625E-07
0.168914794921875, -7.3822021484375E-07
0.1678466796875, -7.2906494140625E-07
0.166778564453125, -7.3150634765625E-07
0.16571044921875, -7.26318359375E-07
0.164642333984375, -7.281494140625E-07
0.16357421875, -7.2357177734375E-07
0.162506103515625, -7.21435546875E-07
0.16143798828125, -7.2265625E-07
0.160369873046875, -7.18994140625E-07
0.1593017578125, -7.1868896484375E-07
0.158233642578125, -7.122802734375E-07
0.15716552734375, -7.183837890625E-07
0.156097412109375, -7.0953369140625E-07
0.155029296875, -7.1319580078125E-07
0.153961181640625, -7.0465087890625E-07
0.15289306640625, -7.1258544921875E-07
0.151824951171875, -7.03125E-07
0.1507568359375, -7.0648193359375E-07
0.149688720703125, -6.9915771484375E-07
0.14862060546875, -7.0526123046875E-07
0.147552490234375, -6.9732666015625E-07
0.146484375, -6.988525390625E-07
0.145416259765625, -6.9549560546875E-07
0.14434814453125, -6.9671630859375E-07
0.143280029296875, -6.9305419921875E-07
0.1422119140625, -6.903076171875E-07
0.141143798828125, -6.9244384765625E-07
0.14007568359375, -6.884765625E-07
0.139007568359375, -6.8878173828125E-07
0.137939453125, -6.8267822265625E-07
0.136871337890625, -6.890869140625E-07
0.13580322265625, -6.8115234375E-07
0.134735107421875, -6.8450927734375E-07
0.1336669921875, -6.7626953125E-07
0.132598876953125, -6.8389892578125E-07
0.13153076171875, -6.75048828125E-07
0.130462646484375, -6.7840576171875E-07
0.12939453125, -6.7291259765625E-07
0.128326416015625, -6.7779541015625E-07
0.12725830078125, -6.7047119140625E-07
0.126190185546875, -6.7169189453125E-07
0.1251220703125, -6.6986083984375E-07
0.124053955078125, -6.7047119140625E-07
0.12298583984375, -6.6741943359375E-07
0.121917724609375, -6.6497802734375E-07
0.120849609375, -6.671142578125E-07
0.119781494140625, -6.634521484375E-07
0.11871337890625, -6.640625E-07
0.117645263671875, -6.5826416015625E-07
0.1165771484375, -6.646728515625E-07
0.115509033203125, -6.5704345703125E-07
0.11444091796875, -6.6009521484375E-07
0.113372802734375, -6.5338134765625E-07
0.1123046875, -6.597900390625E-07
0.111236572265625, -6.5216064453125E-07
0.11016845703125, -6.55517578125E-07
0.109100341796875, -6.500244140625E-07
0.1080322265625, -6.5460205078125E-07
0.106964111328125, -6.48193359375E-07
0.10589599609375, -6.494140625E-07
0.104827880859375, -6.475830078125E-07
0.103759765625, -6.48193359375E-07
0.102691650390625, -6.4605712890625E-07
0.10162353515625, -6.43310546875E-07
0.100555419921875, -6.463623046875E-07
0.0994873046875, -6.4239501953125E-07
0.098419189453125, -6.4361572265625E-07
0.09735107421875, -6.378173828125E-07
0.096282958984375, -6.4422607421875E-07
0.09521484375, -6.3690185546875E-07
0.094146728515625, -6.40869140625E-07
0.09307861328125, -6.3385009765625E-07
0.092010498046875, -6.4056396484375E-07
0.0909423828125, -6.329345703125E-07
0.089874267578125, -6.365966796875E-07
0.08880615234375, -6.3140869140625E-07
0.087738037109375, -6.3629150390625E-07
0.086669921875, -6.3079833984375E-07
0.085601806640625, -6.31103515625E-07
0.08453369140625, -6.3079833984375E-07
0.083465576171875, -6.3079833984375E-07
0.0823974609375, -6.292724609375E-07
0.081329345703125, -6.2652587890625E-07
0.08026123046875, -6.298828125E-07
0.079193115234375, -6.2530517578125E-07
0.078125, -6.280517578125E-07
0.077056884765625, -6.2225341796875E-07
0.07598876953125, -6.28662109375E-07
0.074920654296875, -6.207275390625E-07
0.0738525390625, -6.256103515625E-07
0.072784423828125, -6.18896484375E-07
0.07171630859375, -6.2530517578125E-07
0.070648193359375, -6.18896484375E-07
0.069580078125, -6.219482421875E-07
0.068511962890625, -6.1767578125E-07
0.06744384765625, -6.2103271484375E-07
0.066375732421875, -6.1737060546875E-07
0.0653076171875, -6.1767578125E-07
0.064239501953125, -6.1798095703125E-07
0.06317138671875, -6.16455078125E-07
0.062103271484375, -6.1676025390625E-07
0.06103515625, -6.134033203125E-07
0.059967041015625, -6.182861328125E-07
0.05889892578125, -6.1279296875E-07
0.057830810546875, -6.16455078125E-07
0.0567626953125, -6.097412109375E-07
0.055694580078125, -6.1737060546875E-07
0.05462646484375, -6.0943603515625E-07
0.053558349609375, -6.14013671875E-07
0.052490234375, -6.085205078125E-07
0.051422119140625, -6.1492919921875E-07
0.05035400390625, -6.0882568359375E-07
0.049285888671875, -6.11572265625E-07
0.0482177734375, -6.085205078125E-07
0.047149658203125, -6.1126708984375E-07
0.04608154296875, -6.0821533203125E-07
0.045013427734375, -6.0760498046875E-07
0.0439453125, -6.0943603515625E-07
0.042877197265625, -6.0699462890625E-07
0.04180908203125, -6.09130859375E-07
0.040740966796875, -6.0455322265625E-07
0.0396728515625, -6.103515625E-07
0.038604736328125, -6.04248046875E-07
0.03753662109375, -6.0882568359375E-07
0.036468505859375, -6.024169921875E-07
0.035400390625, -6.097412109375E-07
0.034332275390625, -6.0272216796875E-07
0.03326416015625, -6.0699462890625E-07
0.032196044921875, -6.0211181640625E-07
0.0311279296875, -6.072998046875E-07
0.030059814453125, -6.024169921875E-07
0.02899169921875, -6.04248046875E-07
0.027923583984375, -6.036376953125E-07
0.02685546875, -6.04248046875E-07
0.025787353515625, -6.0333251953125E-07
0.02471923828125, -6.011962890625E-07
0.023651123046875, -6.048583984375E-07
0.0225830078125, -6.01806640625E-07
0.021514892578125, -6.0394287109375E-07
0.02044677734375, -5.9906005859375E-07
0.019378662109375, -6.0577392578125E-07
0.018310546875, -5.999755859375E-07
0.017242431640625, -6.0394287109375E-07
0.01617431640625, -5.9844970703125E-07
0.015106201171875, -6.0516357421875E-07
0.0140380859375, -5.9906005859375E-07
0.012969970703125, -6.0272216796875E-07
0.01190185546875, -5.99365234375E-07
0.010833740234375, -6.0302734375E-07
0.009765625, -5.999755859375E-07
0.008697509765625, -6.005859375E-07
0.00762939453125, -6.0089111328125E-07
0.006561279296875, -6.0150146484375E-07
0.0054931640625, -6.0150146484375E-07
0.004425048828125, -5.9906005859375E-07
0.00335693359375, -6.0272216796875E-07
0.002288818359375, -5.999755859375E-07
0.001220703125, -6.0333251953125E-07
0.000152587890625, -5.9844970703125E-07
-0.00091552734375, -6.04248046875E-07
0.000152587890625, -5.7830810546875E-07
0.001220703125, -5.670166015625E-07
0.002288818359375, -5.4901123046875E-07
0.00335693359375, -5.4290771484375E-07
0.004425048828125, -5.2734375E-07
0.0054931640625, -5.2001953125E-07
0.006561279296875, -5.084228515625E-07
0.00762939453125, -5.0262451171875E-07
0.008697509765625, -4.9176025390625E-07
0.009765625, -4.840087890625E-07
0.010833740234375, -4.776611328125E-07
0.01190185546875, -4.70062255859375E-07
0.012969970703125, -4.63470458984375E-07
0.0140380859375, -4.55078125E-07
0.015106201171875, -4.53033447265625E-07
0.01617431640625, -4.43756103515625E-07
0.017242431640625, -4.40399169921875E-07
0.018310546875, -4.30938720703125E-07
0.019378662109375, -4.31365966796875E-07
0.02044677734375, -4.21722412109375E-07
0.021514892578125, -4.19830322265625E-07
0.0225830078125, -4.114990234375E-07
0.023651123046875, -4.11834716796875E-07
0.02471923828125, -4.0313720703125E-07
0.025787353515625, -4.01397705078125E-07
0.02685546875, -3.948974609375E-07
0.027923583984375, -3.94317626953125E-07
0.02899169921875, -3.8751220703125E-07
0.030059814453125, -3.84429931640625E-07
0.0311279296875, -3.818359375E-07
0.032196044921875, -3.77777099609375E-07
0.03326416015625, -3.74969482421875E-07
0.034332275390625, -3.69171142578125E-07
0.035400390625, -3.70025634765625E-07
0.036468505859375, -3.63800048828125E-07
0.03753662109375, -3.6309814453125E-07
0.038604736328125, -3.56353759765625E-07
0.0396728515625, -3.5833740234375E-07
0.040740966796875, -3.51837158203125E-07
0.04180908203125, -3.51531982421875E-07
0.042877197265625, -3.45703125E-07
0.0439453125, -3.4771728515625E-07
0.045013427734375, -3.4088134765625E-07
0.04608154296875, -3.40850830078125E-07
0.047149658203125, -3.36669921875E-07
0.0482177734375, -3.36669921875E-07
0.049285888671875, -3.321533203125E-07
0.05035400390625, -3.30108642578125E-07
0.051422119140625, -3.29193115234375E-07
0.052490234375, -3.26141357421875E-07
0.053558349609375, -3.24737548828125E-07
0.05462646484375, -3.20404052734375E-07
0.055694580078125, -3.21990966796875E-07
0.0567626953125, -3.16986083984375E-07
0.057830810546875, -3.172607421875E-07
0.05889892578125, -3.121337890625E-07
0.059967041015625, -3.15093994140625E-07
0.06103515625, -3.08624267578125E-07
0.062103271484375, -3.0999755859375E-07
0.06317138671875, -3.04931640625E-07
0.064239501953125, -3.0767822265625E-07
0.0653076171875, -3.01971435546875E-07
0.066375732421875, -3.0206298828125E-07
0.06744384765625, -2.9925537109375E-07
0.068511962890625, -2.99652099609375E-07
0.069580078125, -2.96112060546875E-07
0.070648193359375, -2.945556640625E-07
0.07171630859375, -2.9425048828125E-07
0.072784423828125, -2.92022705078125E-07
0.0738525390625, -2.91046142578125E-07
0.074920654296875, -2.87200927734375E-07
0.07598876953125, -2.89947509765625E-07
0.077056884765625, -2.8472900390625E-07
0.078125, -2.86041259765625E-07
0.079193115234375, -2.80975341796875E-07
0.08026123046875, -2.8448486328125E-07
0.081329345703125, -2.7862548828125E-07
0.0823974609375, -2.80609130859375E-07
0.083465576171875, -2.75726318359375E-07
0.08453369140625, -2.7862548828125E-07
0.085601806640625, -2.7362060546875E-07
0.086669921875, -2.74139404296875E-07
0.087738037109375, -2.72003173828125E-07
0.08880615234375, -2.7227783203125E-07
0.089874267578125, -2.69561767578125E-07
0.0909423828125, -2.68096923828125E-07
0.092010498046875, -2.68524169921875E-07
0.09307861328125, -2.659912109375E-07
0.094146728515625, -2.65655517578125E-07
0.09521484375, -2.615966796875E-07
0.096282958984375, -2.64892578125E-07
0.09735107421875, -2.59765625E-07
0.098419189453125, -2.61993408203125E-07
0.0994873046875, -2.5653076171875E-07
0.100555419921875, -2.60650634765625E-07
0.10162353515625, -2.54791259765625E-07
0.102691650390625, -2.56927490234375E-07
0.103759765625, -2.52899169921875E-07
0.104827880859375, -2.55279541015625E-07
0.10589599609375, -2.51129150390625E-07
0.106964111328125, -2.5140380859375E-07
0.1080322265625, -2.49969482421875E-07
0.109100341796875, -2.49603271484375E-07
0.11016845703125, -2.4786376953125E-07
0.111236572265625, -2.45391845703125E-07
0.1123046875, -2.47406005859375E-07
0.113372802734375, -2.44049072265625E-07
0.11444091796875, -2.4493408203125E-07
0.115509033203125, -2.403564453125E-07
0.1165771484375, -2.44476318359375E-07
0.117645263671875, -2.38861083984375E-07
0.11871337890625, -2.41119384765625E-07
0.119781494140625, -2.36358642578125E-07
0.120849609375, -2.4017333984375E-07
0.121917724609375, -2.349853515625E-07
0.12298583984375, -2.3675537109375E-07
0.124053955078125, -2.3333740234375E-07
0.1251220703125, -2.35504150390625E-07
0.126190185546875, -2.31842041015625E-07
0.12725830078125, -2.31689453125E-07
0.128326416015625, -2.3095703125E-07
0.12939453125, -2.29888916015625E-07
0.130462646484375, -2.294921875E-07
0.13153076171875, -2.26409912109375E-07
0.132598876953125, -2.29034423828125E-07
0.1336669921875, -2.249755859375E-07
0.134735107421875, -2.26531982421875E-07
0.13580322265625, -2.220458984375E-07
0.136871337890625, -2.2564697265625E-07
0.137939453125, -2.20855712890625E-07
0.139007568359375, -2.22991943359375E-07
0.14007568359375, -2.1875E-07
0.141143798828125, -2.220458984375E-07
0.1422119140625, -2.17254638671875E-07
0.143280029296875, -2.18658447265625E-07
0.14434814453125, -2.15789794921875E-07
0.145416259765625, -2.17376708984375E-07
0.146484375, -2.14630126953125E-07
0.147552490234375, -2.1368408203125E-07
0.14862060546875, -2.14263916015625E-07
0.149688720703125, -2.12799072265625E-07
0.1507568359375, -2.1234130859375E-07
0.151824951171875, -2.09197998046875E-07
0.15289306640625, -2.119140625E-07
0.153961181640625, -2.08160400390625E-07
0.155029296875, -2.0965576171875E-07
0.156097412109375, -2.05535888671875E-07
0.15716552734375, -2.0904541015625E-07
0.158233642578125, -2.04345703125E-07
0.1593017578125, -2.061767578125E-07
0.160369873046875, -2.0245361328125E-07
0.16143798828125, -2.05291748046875E-07
0.162506103515625, -2.012939453125E-07
0.16357421875, -2.0220947265625E-07
0.164642333984375, -2.003173828125E-07
0.16571044921875, -2.0098876953125E-07
0.166778564453125, -1.98822021484375E-07
0.1678466796875, -1.97601318359375E-07
0.168914794921875, -1.983642578125E-07
0.16998291015625, -1.9647216796875E-07
0.171051025390625, -1.96380615234375E-07
0.172119140625, -1.93389892578125E-07
0.173187255859375, -1.9635009765625E-07
0.17425537109375, -1.92596435546875E-07
0.175323486328125, -1.9384765625E-07
0.1763916015625, -1.9000244140625E-07
0.177459716796875, -1.93572998046875E-07
0.17852783203125, -1.8890380859375E-07
0.179595947265625, -1.90460205078125E-07
0.1806640625, -1.87255859375E-07
0.181732177734375, -1.89544677734375E-07
0.18280029296875, -1.8646240234375E-07
0.183868408203125, -1.86279296875E-07
0.1849365234375, -1.8536376953125E-07
0.186004638671875, -1.85699462890625E-07
0.18707275390625, -1.83685302734375E-07
0.188140869140625, -1.82586669921875E-07
0.189208984375, -1.83746337890625E-07
0.190277099609375, -1.81671142578125E-07
0.19134521484375, -1.81854248046875E-07
0.192413330078125, -1.78802490234375E-07
0.1934814453125, -1.81640625E-07
0.194549560546875, -1.77734375E-07
0.19561767578125, -1.7926025390625E-07
0.196685791015625, -1.7572021484375E-07
0.19775390625, -1.7877197265625E-07
0.198822021484375, -1.74560546875E-07
0.19989013671875, -1.75872802734375E-07
0.200958251953125, -1.7315673828125E-07
0.2020263671875, -1.75262451171875E-07
0.203094482421875, -1.71905517578125E-07
0.20416259765625, -1.7193603515625E-07
0.205230712890625, -1.7144775390625E-07
0.206298828125, -1.7132568359375E-07
0.207366943359375, -1.697998046875E-07
0.20843505859375, -1.6827392578125E-07
0.209503173828125, -1.69647216796875E-07
0.2105712890625, -1.67572021484375E-07
0.211639404296875, -1.67633056640625E-07
0.21270751953125, -1.64794921875E-07
0.213775634765625, -1.676025390625E-07
0.21484375, -1.63848876953125E-07
0.215911865234375, -1.65191650390625E-07
0.21697998046875, -1.617431640625E-07
0.218048095703125, -1.64520263671875E-07
0.2191162109375, -1.6046142578125E-07
0.220184326171875, -1.6217041015625E-07
0.22125244140625, -1.5936279296875E-07
0.222320556640625, -1.61590576171875E-07
0.223388671875, -1.58416748046875E-07
0.224456787109375, -1.58538818359375E-07
0.22552490234375, -1.5765380859375E-07
0.226593017578125, -1.57440185546875E-07
0.2276611328125, -1.56341552734375E-07
0.228729248046875, -1.54388427734375E-07
0.22979736328125, -1.56158447265625E-07
0.230865478515625, -1.53839111328125E-07
0.23193359375, -1.54327392578125E-07
0.233001708984375, -1.51275634765625E-07
0.23406982421875, -1.54144287109375E-07
0.235137939453125, -1.50360107421875E-07
0.2362060546875, -1.519775390625E-07
0.237274169921875, -1.48162841796875E-07
0.23834228515625, -1.5167236328125E-07
0.239410400390625, -1.47064208984375E-07
0.240478515625, -1.488037109375E-07
0.241546630859375, -1.4599609375E-07
0.24261474609375, -1.480712890625E-07
0.243682861328125, -1.44927978515625E-07
0.2447509765625, -1.4532470703125E-07
0.245819091796875, -1.44439697265625E-07
0.24688720703125, -1.4422607421875E-07
0.247955322265625, -1.4300537109375E-07
0.2490234375, -1.4111328125E-07
0.250091552734375, -1.43157958984375E-07
0.25115966796875, -1.39984130859375E-07
0.252227783203125, -1.41265869140625E-07
0.2532958984375, -1.3763427734375E-07
0.254364013671875, -1.41021728515625E-07
0.25543212890625, -1.3671875E-07
0.256500244140625, -1.385498046875E-07
0.257568359375, -1.3494873046875E-07
0.258636474609375, -1.38031005859375E-07
0.25970458984375, -1.336669921875E-07
0.260772705078125, -1.35589599609375E-07
0.2618408203125, -1.3299560546875E-07
0.262908935546875, -1.34307861328125E-07
0.26397705078125, -1.3177490234375E-07
0.265045166015625, -1.31439208984375E-07
0.26611328125, -1.31591796875E-07
0.267181396484375, -1.30401611328125E-07
0.26824951171875, -1.3006591796875E-07
0.269317626953125, -1.27166748046875E-07
0.2703857421875, -1.300048828125E-07
0.271453857421875, -1.26220703125E-07
0.27252197265625, -1.28173828125E-07
0.273590087890625, -1.23779296875E-07
0.274658203125, -1.27532958984375E-07
0.275726318359375, -1.22833251953125E-07
0.27679443359375, -1.24908447265625E-07
0.277862548828125, -1.2139892578125E-07
0.2789306640625, -1.241455078125E-07
0.279998779296875, -1.202392578125E-07
0.28106689453125, -1.209716796875E-07
0.282135009765625, -1.19293212890625E-07
0.283203125, -1.19781494140625E-07
0.284271240234375, -1.177978515625E-07
0.28533935546875, -1.16729736328125E-07
0.286407470703125, -1.175537109375E-07
0.2874755859375, -1.15142822265625E-07
0.288543701171875, -1.15692138671875E-07
0.28961181640625, -1.121826171875E-07
0.290679931640625, -1.15325927734375E-07
0.291748046875, -1.10687255859375E-07
0.292816162109375, -1.12823486328125E-07
0.29388427734375, -1.08489990234375E-07
0.294952392578125, -1.114501953125E-07
0.2960205078125, -1.0723876953125E-07
0.297088623046875, -1.0858154296875E-07
0.29815673828125, -1.0516357421875E-07
0.299224853515625, -1.072998046875E-07
0.30029296875, -1.038818359375E-07
0.301361083984375, -1.03790283203125E-07
0.30242919921875, -1.0260009765625E-07
0.303497314453125, -1.01898193359375E-07
0.3045654296875, -1.00860595703125E-07
0.305633544921875, -9.8724365234375E-08
0.30670166015625, -9.9456787109375E-08
0.307769775390625, -9.6588134765625E-08
0.308837890625, -9.7198486328125E-08
0.309906005859375, -9.356689453125E-08
0.31097412109375, -9.6038818359375E-08
0.312042236328125, -9.1583251953125E-08
0.3131103515625, -9.28955078125E-08
0.314178466796875, -8.8470458984375E-08
0.31524658203125, -9.1156005859375E-08
0.316314697265625, -8.6578369140625E-08
0.3173828125, -8.7158203125E-08
0.318450927734375, -8.4228515625E-08
0.31951904296875, -8.489990234375E-08
0.320587158203125, -8.197021484375E-08
0.3216552734375, -8.04443359375E-08
0.322723388671875, -7.9498291015625E-08
0.32379150390625, -7.7880859375E-08
0.324859619140625, -7.647705078125E-08
0.325927734375, -7.36083984375E-08
0.326995849609375, -7.4188232421875E-08
0.32806396484375, -7.073974609375E-08
0.329132080078125, -7.01904296875E-08
0.3302001953125, -6.6162109375E-08
0.331268310546875, -6.77490234375E-08
0.33233642578125, -6.31103515625E-08
0.333404541015625, -6.304931640625E-08
0.33447265625, -5.8990478515625E-08
0.335540771484375, -5.963134765625E-08
0.33660888671875, -5.5084228515625E-08
0.337677001953125, -5.43212890625E-08
0.3387451171875, -5.096435546875E-08
0.339813232421875, -5.0140380859375E-08
0.34088134765625, -4.6826171875E-08
0.341949462890625, -4.384765625E-08
0.343017578125, -4.19403076171875E-08
0.344085693359375, -3.89739990234375E-08
0.34515380859375, -3.64776611328125E-08
0.346221923828125, -3.2489013671875E-08
0.3472900390625, -3.18359375E-08
0.348358154296875, -2.7423095703125E-08
0.34942626953125, -2.54669189453125E-08
0.350494384765625, -2.04376220703125E-08
0.3515625, -1.97235107421875E-08
0.352630615234375, -1.42913818359375E-08
0.35369873046875, -1.1834716796875E-08
0.354766845703125, -6.451416015625E-09
0.3558349609375, -4.94384765625E-09
0.356903076171875, 4.58984375E-10
0.35797119140625, 3.594970703125E-09
0.359039306640625, 8.4869384765625E-09
0.360107421875, 1.17767333984375E-08
0.361175537109375, 1.71783447265625E-08
0.36224365234375, 2.17742919921875E-08
0.363311767578125, 2.57904052734375E-08
0.3643798828125, 3.09173583984375E-08
0.365447998046875, 3.61572265625E-08
0.36651611328125, 4.2218017578125E-08
0.367584228515625, 4.5806884765625E-08
0.36865234375, 5.2642822265625E-08
0.369720458984375, 5.8074951171875E-08
0.37078857421875, 6.5216064453125E-08
0.371856689453125, 6.9549560546875E-08
0.3729248046875, 7.7606201171875E-08
0.373992919921875, 8.3221435546875E-08
0.37506103515625, 9.0850830078125E-08
0.376129150390625, 9.6527099609375E-08
0.377197265625, 1.05438232421875E-07
0.378265380859375, 1.12579345703125E-07
0.37933349609375, 1.20574951171875E-07
0.380401611328125, 1.2744140625E-07
0.3814697265625, 1.3690185546875E-07
0.382537841796875, 1.45111083984375E-07
0.38360595703125, 1.5374755859375E-07
0.384674072265625, 1.62872314453125E-07
0.3857421875, 1.72576904296875E-07
0.386810302734375, 1.82830810546875E-07
0.38787841796875, 1.91802978515625E-07
0.388946533203125, 2.02301025390625E-07
0.3900146484375, 2.12432861328125E-07
0.391082763671875, 2.24639892578125E-07
0.39215087890625, 2.34222412109375E-07
0.393218994140625, 2.4749755859375E-07
0.394287109375, 2.59124755859375E-07
0.395355224609375, 2.725830078125E-07
0.39642333984375, 2.838134765625E-07
0.397491455078125, 2.9852294921875E-07
0.3985595703125, 3.10272216796875E-07
0.399627685546875, 3.25927734375E-07
0.40069580078125, 3.37799072265625E-07
0.401763916015625, 3.54949951171875E-07
0.40283203125, 3.682861328125E-07
0.403900146484375, 3.85162353515625E-07
0.40496826171875, 4.000244140625E-07
0.406036376953125, 4.169921875E-07
0.4071044921875, 4.34295654296875E-07
0.408172607421875, 4.50775146484375E-07
0.40924072265625, 4.6856689453125E-07
0.410308837890625, 4.8626708984375E-07
0.411376953125, 5.05126953125E-07
0.412445068359375, 5.23406982421875E-07
0.41351318359375, 5.443115234375E-07
0.414581298828125, 5.6292724609375E-07
0.4156494140625, 5.84320068359375E-07
0.416717529296875, 6.03973388671875E-07
0.41778564453125, 6.2652587890625E-07
0.418853759765625, 6.4697265625E-07
0.419921875, 6.70166015625E-07
0.420989990234375, 6.92138671875E-07
0.42205810546875, 7.1563720703125E-07
0.423126220703125, 7.3944091796875E-07
0.4241943359375, 7.6446533203125E-07
0.425262451171875, 7.8826904296875E-07
0.42633056640625, 8.14208984375E-07
0.427398681640625, 8.38623046875E-07
0.428466796875, 8.642578125E-07
0.429534912109375, 8.917236328125E-07
0.43060302734375, 9.185791015625E-07
0.431671142578125, 9.4757080078125E-07
0.4327392578125, 9.747314453125E-07
0.433807373046875, 1.00433349609375E-06
0.43487548828125, 1.03271484375E-06
0.435943603515625, 1.0638427734375E-06
0.43701171875, 1.09283447265625E-06
0.438079833984375, 1.12518310546875E-06
0.43914794921875, 1.156005859375E-06
0.440216064453125, 1.1883544921875E-06
0.4412841796875, 1.21917724609375E-06
0.442352294921875, 1.2542724609375E-06
0.44342041015625, 1.28692626953125E-06
0.444488525390625, 1.3214111328125E-06
0.445556640625, 1.35589599609375E-06
0.446624755859375, 1.3916015625E-06
0.44769287109375, 1.42578125E-06
0.448760986328125, 1.4630126953125E-06
0.4498291015625, 1.49932861328125E-06
0.450897216796875, 1.536865234375E-06
0.45196533203125, 1.5740966796875E-06
0.453033447265625, 1.6131591796875E-06
0.4541015625, 1.65130615234375E-06
0.455169677734375, 1.690673828125E-06
0.45623779296875, 1.73095703125E-06
0.457305908203125, 1.77032470703125E-06
0.4583740234375, 1.81182861328125E-06
0.459442138671875, 1.85150146484375E-06
0.46051025390625, 1.8951416015625E-06
0.461578369140625, 1.9354248046875E-06
0.462646484375, 1.97967529296875E-06
0.463714599609375, 2.021484375E-06
0.46478271484375, 2.06695556640625E-06
0.465850830078125, 2.1099853515625E-06
0.4669189453125, 2.15362548828125E-06
0.467987060546875, 2.197265625E-06
0.46905517578125, 2.24517822265625E-06
0.470123291015625, 2.29034423828125E-06
0.47119140625, 2.3382568359375E-06
0.472259521484375, 2.38525390625E-06
0.47332763671875, 2.432861328125E-06
0.474395751953125, 2.4798583984375E-06
0.4754638671875, 2.52777099609375E-06
0.476531982421875, 2.5775146484375E-06
0.47760009765625, 2.6263427734375E-06
0.478668212890625, 2.67547607421875E-06
0.479736328125, 2.72491455078125E-06
0.480804443359375, 2.7783203125E-06
0.48187255859375, 2.82562255859375E-06
0.482940673828125, 2.87933349609375E-06
0.4840087890625, 2.9278564453125E-06
0.485076904296875, 2.98431396484375E-06
0.48614501953125, 3.03253173828125E-06
0.487213134765625, 3.08807373046875E-06
0.48828125, 3.138427734375E-06
0.489349365234375, 3.19580078125E-06
0.49041748046875, 3.2470703125E-06
0.491485595703125, 3.30322265625E-06
0.4925537109375, 3.35723876953125E-06
0.493621826171875, 3.414306640625E-06
0.49468994140625, 3.466796875E-06
0.495758056640625, 3.5235595703125E-06
0.496826171875, 3.5809326171875E-06
0.497894287109375, 3.6370849609375E-06
0.49896240234375, 3.69354248046875E-06
0.500030517578125, 3.74908447265625E-06
##END=$$ End of the data block
