##TITLE=Spectrum
##JCAMP-DX=5.00 $$ chemotion-converter-app (1.5.0)
##DATA TYPE=CYCLIC VOLTAMMETRY
##DATA CLASS=XYPOINTS
##ORIGIN=
##OWNER=
##XUNITS=Voltage vs Ref
##YUNITS=Ampere
##SCAN_RATE=0.09994812
##STEP_SIZE=0.00106754
##VOLTAGE_LIMIT_END=0.50003051
##VOLTAGE_START=0.50109863
##VOLTAGE_LIMIT_ONE=1.00097656
##VOLTAGE_LIMIT_TWO=-0.0009155
##FIRSTX=0.5010986328125
##LASTX=0.500030517578125
##MINX=-0.00091552734375
##MAXX=1.0009765625
##MINY=-1.168212890625e-05
##MAXY=1.226806640625e-05
##NPOINTS=1876
##FIRSTY=3.81103515625E-06
##XUNITS=Voltage vs Ref
##YUNITS=Ampere
##XYPOINTS=(XY..XY)
0.5010986328125, 3.81103515625E-06
0.502166748046875, 3.86566162109375E-06
0.50323486328125, 3.92578125E-06
0.504302978515625, 3.98101806640625E-06
0.50537109375, 4.04296875E-06
0.506439208984375, 4.09759521484375E-06
0.50750732421875, 4.161376953125E-06
0.508575439453125, 4.21783447265625E-06
0.5096435546875, 4.2828369140625E-06
0.510711669921875, 4.33837890625E-06
0.51177978515625, 4.40185546875E-06
0.512847900390625, 4.46197509765625E-06
0.513916015625, 4.5245361328125E-06
0.514984130859375, 4.5843505859375E-06
0.51605224609375, 4.64569091796875E-06
0.517120361328125, 4.7100830078125E-06
0.5181884765625, 4.769287109375E-06
0.519256591796875, 4.833984375E-06
0.52032470703125, 4.8931884765625E-06
0.521392822265625, 4.962158203125E-06
0.5224609375, 5.01953125E-06
0.523529052734375, 5.08697509765625E-06
0.52459716796875, 5.14617919921875E-06
0.525665283203125, 5.21636962890625E-06
0.5267333984375, 5.2734375E-06
0.527801513671875, 5.34271240234375E-06
0.52886962890625, 5.40252685546875E-06
0.529937744140625, 5.47393798828125E-06
0.531005859375, 5.5322265625E-06
0.532073974609375, 5.59967041015625E-06
0.53314208984375, 5.6646728515625E-06
0.534210205078125, 5.7305908203125E-06
0.5352783203125, 5.79559326171875E-06
0.536346435546875, 5.85845947265625E-06
0.53741455078125, 5.92926025390625E-06
0.538482666015625, 5.99029541015625E-06
0.53955078125, 6.060791015625E-06
0.540618896484375, 6.1248779296875E-06
0.54168701171875, 6.1981201171875E-06
0.542755126953125, 6.256103515625E-06
0.5438232421875, 6.329345703125E-06
0.544891357421875, 6.3873291015625E-06
0.54595947265625, 6.4605712890625E-06
0.547027587890625, 6.5185546875E-06
0.548095703125, 6.591796875E-06
0.549163818359375, 6.6558837890625E-06
0.55023193359375, 6.7291259765625E-06
0.551300048828125, 6.7901611328125E-06
0.5523681640625, 6.8603515625E-06
0.553436279296875, 6.927490234375E-06
0.55450439453125, 6.99462890625E-06
0.555572509765625, 7.061767578125E-06
0.556640625, 7.1258544921875E-06
0.557708740234375, 7.2021484375E-06
0.55877685546875, 7.2601318359375E-06
0.559844970703125, 7.3333740234375E-06
0.5609130859375, 7.3944091796875E-06
0.561981201171875, 7.4737548828125E-06
0.56304931640625, 7.53173828125E-06
0.564117431640625, 7.60498046875E-06
0.565185546875, 7.666015625E-06
0.566253662109375, 7.7423095703125E-06
0.56732177734375, 7.80029296875E-06
0.568389892578125, 7.8704833984375E-06
0.5694580078125, 7.9345703125E-06
0.570526123046875, 8.0078125E-06
0.57159423828125, 8.06884765625E-06
0.572662353515625, 8.1390380859375E-06
0.57373046875, 8.2061767578125E-06
0.574798583984375, 8.2733154296875E-06
0.57586669921875, 8.3404541015625E-06
0.576934814453125, 8.4014892578125E-06
0.5780029296875, 8.477783203125E-06
0.579071044921875, 8.5357666015625E-06
0.58013916015625, 8.6090087890625E-06
0.581207275390625, 8.6669921875E-06
0.582275390625, 8.7432861328125E-06
0.583343505859375, 8.7982177734375E-06
0.58441162109375, 8.8714599609375E-06
0.585479736328125, 8.9263916015625E-06
0.5865478515625, 9.0057373046875E-06
0.587615966796875, 9.0606689453125E-06
0.58868408203125, 9.130859375E-06
0.589752197265625, 9.19189453125E-06
0.5908203125, 9.259033203125E-06
0.591888427734375, 9.3231201171875E-06
0.59295654296875, 9.381103515625E-06
0.594024658203125, 9.4512939453125E-06
0.5950927734375, 9.5123291015625E-06
0.596160888671875, 9.576416015625E-06
0.59722900390625, 9.6343994140625E-06
0.598297119140625, 9.7076416015625E-06
0.599365234375, 9.759521484375E-06
0.600433349609375, 9.8297119140625E-06
0.60150146484375, 9.881591796875E-06
0.602569580078125, 9.9578857421875E-06
0.6036376953125, 1.00067138671875E-05
0.604705810546875, 1.00738525390625E-05
0.60577392578125, 1.01287841796875E-05
0.606842041015625, 1.0198974609375E-05
0.60791015625, 1.0247802734375E-05
0.608978271484375, 1.0308837890625E-05
0.61004638671875, 1.0369873046875E-05
0.611114501953125, 1.04278564453125E-05
0.6121826171875, 1.04827880859375E-05
0.613250732421875, 1.05377197265625E-05
0.61431884765625, 1.06048583984375E-05
0.615386962890625, 1.06536865234375E-05
0.616455078125, 1.07147216796875E-05
0.617523193359375, 1.0760498046875E-05
0.61859130859375, 1.082763671875E-05
0.619659423828125, 1.0870361328125E-05
0.6207275390625, 1.0931396484375E-05
0.621795654296875, 1.09710693359375E-05
0.62286376953125, 1.10382080078125E-05
0.623931884765625, 1.10748291015625E-05
0.625, 1.1138916015625E-05
0.626068115234375, 1.11785888671875E-05
0.62713623046875, 1.124267578125E-05
0.628204345703125, 1.1279296875E-05
0.6292724609375, 1.13311767578125E-05
0.630340576171875, 1.13800048828125E-05
0.63140869140625, 1.142578125E-05
0.632476806640625, 1.1468505859375E-05
0.633544921875, 1.151123046875E-05
0.634613037109375, 1.15631103515625E-05
0.63568115234375, 1.15966796875E-05
0.636749267578125, 1.16455078125E-05
0.6378173828125, 1.1676025390625E-05
0.638885498046875, 1.173095703125E-05
0.63995361328125, 1.175537109375E-05
0.641021728515625, 1.18011474609375E-05
0.64208984375, 1.18255615234375E-05
0.643157958984375, 1.18804931640625E-05
0.64422607421875, 1.1895751953125E-05
0.645294189453125, 1.19384765625E-05
0.6463623046875, 1.1962890625E-05
0.647430419921875, 1.2005615234375E-05
0.64849853515625, 1.202392578125E-05
0.649566650390625, 1.2054443359375E-05
0.650634765625, 1.20819091796875E-05
0.651702880859375, 1.21063232421875E-05
0.65277099609375, 1.21307373046875E-05
0.653839111328125, 1.214599609375E-05
0.6549072265625, 1.2176513671875E-05
0.655975341796875, 1.21826171875E-05
0.65704345703125, 1.220703125E-05
0.658111572265625, 1.22100830078125E-05
0.6591796875, 1.2237548828125E-05
0.660247802734375, 1.22344970703125E-05
0.66131591796875, 1.22528076171875E-05
0.662384033203125, 1.224365234375E-05
0.6634521484375, 1.226806640625E-05
0.664520263671875, 1.22528076171875E-05
0.66558837890625, 1.2261962890625E-05
0.666656494140625, 1.2249755859375E-05
0.667724609375, 1.22589111328125E-05
0.668792724609375, 1.2237548828125E-05
0.66986083984375, 1.22283935546875E-05
0.670928955078125, 1.22161865234375E-05
0.6719970703125, 1.21978759765625E-05
0.673065185546875, 1.2176513671875E-05
0.67413330078125, 1.21429443359375E-05
0.675201416015625, 1.21307373046875E-05
0.67626953125, 1.20849609375E-05
0.677337646484375, 1.20574951171875E-05
0.67840576171875, 1.20025634765625E-05
0.679473876953125, 1.19842529296875E-05
0.6805419921875, 1.19110107421875E-05
0.681610107421875, 1.1871337890625E-05
0.68267822265625, 1.17950439453125E-05
0.683746337890625, 1.17523193359375E-05
0.684814453125, 1.1663818359375E-05
0.685882568359375, 1.15966796875E-05
0.68695068359375, 1.1505126953125E-05
0.688018798828125, 1.142578125E-05
0.6890869140625, 1.13128662109375E-05
0.690155029296875, 1.12091064453125E-05
0.69122314453125, 1.10931396484375E-05
0.692291259765625, 1.0968017578125E-05
0.693359375, 1.08306884765625E-05
0.694427490234375, 1.0675048828125E-05
0.69549560546875, 1.05316162109375E-05
0.696563720703125, 1.033935546875E-05
0.6976318359375, 1.01593017578125E-05
0.698699951171875, 9.9334716796875E-06
0.69976806640625, 9.7381591796875E-06
0.700836181640625, 9.4635009765625E-06
0.701904296875, 9.21630859375E-06
0.702972412109375, 8.9111328125E-06
0.70404052734375, 8.6212158203125E-06
0.705108642578125, 8.26416015625E-06
0.7061767578125, 7.92236328125E-06
0.707244873046875, 7.5408935546875E-06
0.70831298828125, 7.171630859375E-06
0.709381103515625, 6.7657470703125E-06
0.71044921875, 6.38427734375E-06
0.711517333984375, 6.0150146484375E-06
0.71258544921875, 5.657958984375E-06
0.713653564453125, 5.3253173828125E-06
0.7147216796875, 5.010986328125E-06
0.715789794921875, 4.7479248046875E-06
0.71685791015625, 4.473876953125E-06
0.717926025390625, 4.256591796875E-06
0.718994140625, 4.0252685546875E-06
0.720062255859375, 3.86962890625E-06
0.72113037109375, 3.6663818359375E-06
0.722198486328125, 3.53515625E-06
0.7232666015625, 3.37066650390625E-06
0.724334716796875, 3.27972412109375E-06
0.72540283203125, 3.13446044921875E-06
0.726470947265625, 3.04931640625E-06
0.7275390625, 2.9412841796875E-06
0.728607177734375, 2.874755859375E-06
0.72967529296875, 2.78076171875E-06
0.730743408203125, 2.71270751953125E-06
0.7318115234375, 2.65380859375E-06
0.732879638671875, 2.59124755859375E-06
0.73394775390625, 2.537841796875E-06
0.735015869140625, 2.47344970703125E-06
0.736083984375, 2.451171875E-06
0.737152099609375, 2.38677978515625E-06
0.73822021484375, 2.362060546875E-06
0.739288330078125, 2.3016357421875E-06
0.7403564453125, 2.3016357421875E-06
0.741424560546875, 2.23663330078125E-06
0.74249267578125, 2.23114013671875E-06
0.743560791015625, 2.1759033203125E-06
0.74462890625, 2.18353271484375E-06
0.745697021484375, 2.12860107421875E-06
0.74676513671875, 2.12127685546875E-06
0.747833251953125, 2.08709716796875E-06
0.7489013671875, 2.0819091796875E-06
0.749969482421875, 2.049560546875E-06
0.75103759765625, 2.030029296875E-06
0.752105712890625, 2.02178955078125E-06
0.753173828125, 1.99859619140625E-06
0.754241943359375, 1.98699951171875E-06
0.75531005859375, 1.95587158203125E-06
0.756378173828125, 1.96929931640625E-06
0.7574462890625, 1.929931640625E-06
0.758514404296875, 1.9354248046875E-06
0.75958251953125, 1.89605712890625E-06
0.760650634765625, 1.91925048828125E-06
0.76171875, 1.875E-06
0.762786865234375, 1.88568115234375E-06
0.76385498046875, 1.85272216796875E-06
0.764923095703125, 1.87042236328125E-06
0.7659912109375, 1.83563232421875E-06
0.767059326171875, 1.83624267578125E-06
0.76812744140625, 1.82159423828125E-06
0.769195556640625, 1.82159423828125E-06
0.770263671875, 1.80267333984375E-06
0.771331787109375, 1.79107666015625E-06
0.77239990234375, 1.79656982421875E-06
0.773468017578125, 1.7767333984375E-06
0.7745361328125, 1.77703857421875E-06
0.775604248046875, 1.74957275390625E-06
0.77667236328125, 1.77215576171875E-06
0.777740478515625, 1.73797607421875E-06
0.77880859375, 1.74957275390625E-06
0.779876708984375, 1.71905517578125E-06
0.78094482421875, 1.7437744140625E-06
0.782012939453125, 1.70806884765625E-06
0.7830810546875, 1.72027587890625E-06
0.784149169921875, 1.6949462890625E-06
0.78521728515625, 1.712646484375E-06
0.786285400390625, 1.68487548828125E-06
0.787353515625, 1.688232421875E-06
0.788421630859375, 1.6796875E-06
0.78948974609375, 1.6778564453125E-06
0.790557861328125, 1.6680908203125E-06
0.7916259765625, 1.65496826171875E-06
0.792694091796875, 1.66839599609375E-06
0.79376220703125, 1.64642333984375E-06
0.794830322265625, 1.651611328125E-06
0.7958984375, 1.62750244140625E-06
0.796966552734375, 1.6522216796875E-06
0.79803466796875, 1.619873046875E-06
0.799102783203125, 1.6339111328125E-06
0.8001708984375, 1.60491943359375E-06
0.801239013671875, 1.63177490234375E-06
0.80230712890625, 1.5985107421875E-06
0.803375244140625, 1.61163330078125E-06
0.804443359375, 1.5911865234375E-06
0.805511474609375, 1.60675048828125E-06
0.80657958984375, 1.5850830078125E-06
0.807647705078125, 1.5850830078125E-06
0.8087158203125, 1.58355712890625E-06
0.809783935546875, 1.57958984375E-06
0.81085205078125, 1.5728759765625E-06
0.811920166015625, 1.5606689453125E-06
0.81298828125, 1.5753173828125E-06
0.814056396484375, 1.55487060546875E-06
0.81512451171875, 1.56219482421875E-06
0.816192626953125, 1.5386962890625E-06
0.8172607421875, 1.56494140625E-06
0.818328857421875, 1.53289794921875E-06
0.81939697265625, 1.54754638671875E-06
0.820465087890625, 1.5228271484375E-06
0.821533203125, 1.5478515625E-06
0.822601318359375, 1.51824951171875E-06
0.82366943359375, 1.5301513671875E-06
0.824737548828125, 1.51397705078125E-06
0.8258056640625, 1.5264892578125E-06
0.826873779296875, 1.5087890625E-06
0.82794189453125, 1.507568359375E-06
0.829010009765625, 1.5087890625E-06
0.830078125, 1.50390625E-06
0.831146240234375, 1.50054931640625E-06
0.83221435546875, 1.4862060546875E-06
0.833282470703125, 1.50482177734375E-06
0.8343505859375, 1.48193359375E-06
0.835418701171875, 1.49322509765625E-06
0.83648681640625, 1.46881103515625E-06
0.837554931640625, 1.49627685546875E-06
0.838623046875, 1.46453857421875E-06
0.839691162109375, 1.48040771484375E-06
0.84075927734375, 1.45751953125E-06
0.841827392578125, 1.48162841796875E-06
0.8428955078125, 1.45416259765625E-06
0.843963623046875, 1.4642333984375E-06
0.84503173828125, 1.45233154296875E-06
0.846099853515625, 1.46148681640625E-06
0.84716796875, 1.44805908203125E-06
0.848236083984375, 1.44378662109375E-06
0.84930419921875, 1.4520263671875E-06
0.850372314453125, 1.4410400390625E-06
0.8514404296875, 1.4422607421875E-06
0.852508544921875, 1.42547607421875E-06
0.85357666015625, 1.448974609375E-06
0.854644775390625, 1.4227294921875E-06
0.855712890625, 1.43585205078125E-06
0.856781005859375, 1.4129638671875E-06
0.85784912109375, 1.439208984375E-06
0.858917236328125, 1.40960693359375E-06
0.8599853515625, 1.424560546875E-06
0.861053466796875, 1.40411376953125E-06
0.86212158203125, 1.42578125E-06
0.863189697265625, 1.4013671875E-06
0.8642578125, 1.40899658203125E-06
0.865325927734375, 1.40289306640625E-06
0.86639404296875, 1.40777587890625E-06
0.867462158203125, 1.39892578125E-06
0.8685302734375, 1.39190673828125E-06
0.869598388671875, 1.402587890625E-06
0.87066650390625, 1.38916015625E-06
0.871734619140625, 1.39404296875E-06
0.872802734375, 1.3775634765625E-06
0.873870849609375, 1.39923095703125E-06
0.87493896484375, 1.3739013671875E-06
0.876007080078125, 1.3885498046875E-06
0.8770751953125, 1.3653564453125E-06
0.878143310546875, 1.39129638671875E-06
0.87921142578125, 1.3623046875E-06
0.880279541015625, 1.378173828125E-06
0.88134765625, 1.35955810546875E-06
0.882415771484375, 1.378173828125E-06
0.88348388671875, 1.3580322265625E-06
0.884552001953125, 1.36322021484375E-06
0.8856201171875, 1.361083984375E-06
0.886688232421875, 1.36077880859375E-06
0.88775634765625, 1.3555908203125E-06
0.888824462890625, 1.34735107421875E-06
0.889892578125, 1.36016845703125E-06
0.890960693359375, 1.34552001953125E-06
0.89202880859375, 1.3525390625E-06
0.893096923828125, 1.3330078125E-06
0.8941650390625, 1.35772705078125E-06
0.895233154296875, 1.331787109375E-06
0.89630126953125, 1.3470458984375E-06
0.897369384765625, 1.3250732421875E-06
0.8984375, 1.34918212890625E-06
0.899505615234375, 1.3238525390625E-06
0.90057373046875, 1.3360595703125E-06
0.901641845703125, 1.32232666015625E-06
0.9027099609375, 1.3360595703125E-06
0.903778076171875, 1.32049560546875E-06
0.90484619140625, 1.3226318359375E-06
0.905914306640625, 1.32232666015625E-06
0.906982421875, 1.3214111328125E-06
0.908050537109375, 1.31744384765625E-06
0.90911865234375, 1.30859375E-06
0.910186767578125, 1.3232421875E-06
0.9112548828125, 1.30706787109375E-06
0.912322998046875, 1.31591796875E-06
0.91339111328125, 1.29669189453125E-06
0.914459228515625, 1.32110595703125E-06
0.91552734375, 1.2957763671875E-06
0.916595458984375, 1.309814453125E-06
0.91766357421875, 1.28997802734375E-06
0.918731689453125, 1.312255859375E-06
0.9197998046875, 1.2896728515625E-06
0.920867919921875, 1.29974365234375E-06
0.92193603515625, 1.28814697265625E-06
0.923004150390625, 1.29974365234375E-06
0.924072265625, 1.28631591796875E-06
0.925140380859375, 1.28753662109375E-06
0.92620849609375, 1.2896728515625E-06
0.927276611328125, 1.28631591796875E-06
0.9283447265625, 1.28509521484375E-06
0.929412841796875, 1.27288818359375E-06
0.93048095703125, 1.29119873046875E-06
0.931549072265625, 1.27288818359375E-06
0.9326171875, 1.2835693359375E-06
0.933685302734375, 1.26434326171875E-06
0.93475341796875, 1.2872314453125E-06
0.935821533203125, 1.2646484375E-06
0.9368896484375, 1.27593994140625E-06
0.937957763671875, 1.2591552734375E-06
0.93902587890625, 1.27960205078125E-06
0.940093994140625, 1.25885009765625E-06
0.941162109375, 1.26708984375E-06
0.942230224609375, 1.25885009765625E-06
0.94329833984375, 1.26678466796875E-06
0.944366455078125, 1.25701904296875E-06
0.9454345703125, 1.25396728515625E-06
0.946502685546875, 1.2615966796875E-06
0.94757080078125, 1.2530517578125E-06
0.948638916015625, 1.2554931640625E-06
0.94970703125, 1.243896484375E-06
0.950775146484375, 1.260986328125E-06
0.95184326171875, 1.24298095703125E-06
0.952911376953125, 1.25244140625E-06
0.9539794921875, 1.2359619140625E-06
0.955047607421875, 1.25732421875E-06
0.95611572265625, 1.23504638671875E-06
0.957183837890625, 1.24664306640625E-06
0.958251953125, 1.23077392578125E-06
0.959320068359375, 1.24908447265625E-06
0.96038818359375, 1.23046875E-06
0.961456298828125, 1.23779296875E-06
0.9625244140625, 1.23260498046875E-06
0.963592529296875, 1.23748779296875E-06
0.96466064453125, 1.22955322265625E-06
0.965728759765625, 1.22650146484375E-06
0.966796875, 1.234130859375E-06
0.967864990234375, 1.2255859375E-06
0.96893310546875, 1.22894287109375E-06
0.970001220703125, 1.21673583984375E-06
0.9710693359375, 1.234130859375E-06
0.972137451171875, 1.21490478515625E-06
0.97320556640625, 1.22650146484375E-06
0.974273681640625, 1.20819091796875E-06
0.975341796875, 1.2298583984375E-06
0.976409912109375, 1.20819091796875E-06
0.97747802734375, 1.21978759765625E-06
0.978546142578125, 1.20635986328125E-06
0.9796142578125, 1.220703125E-06
0.980682373046875, 1.2060546875E-06
0.98175048828125, 1.2103271484375E-06
0.982818603515625, 1.207275390625E-06
0.98388671875, 1.21063232421875E-06
0.984954833984375, 1.204833984375E-06
0.98602294921875, 1.20025634765625E-06
0.987091064453125, 1.2091064453125E-06
0.9881591796875, 1.19903564453125E-06
0.989227294921875, 1.2042236328125E-06
0.99029541015625, 1.18988037109375E-06
0.991363525390625, 1.209716796875E-06
0.992431640625, 1.18896484375E-06
0.993499755859375, 1.2017822265625E-06
0.99456787109375, 1.1834716796875E-06
0.995635986328125, 1.2054443359375E-06
0.9967041015625, 1.18438720703125E-06
0.997772216796875, 1.19476318359375E-06
0.99884033203125, 1.18316650390625E-06
0.999908447265625, 1.1962890625E-06
1.0009765625, 1.1822509765625E-06
0.999908447265625, 1.17828369140625E-06
0.99884033203125, 1.1724853515625E-06
0.997772216796875, 1.1688232421875E-06
0.9967041015625, 1.160888671875E-06
0.995635986328125, 1.14990234375E-06
0.99456787109375, 1.1590576171875E-06
0.993499755859375, 1.14288330078125E-06
0.992431640625, 1.14715576171875E-06
0.991363525390625, 1.1279296875E-06
0.99029541015625, 1.146240234375E-06
0.989227294921875, 1.12274169921875E-06
0.9881591796875, 1.13311767578125E-06
0.987091064453125, 1.11236572265625E-06
0.98602294921875, 1.13189697265625E-06
0.984954833984375, 1.1083984375E-06
0.98388671875, 1.116943359375E-06
0.982818603515625, 1.10321044921875E-06
0.98175048828125, 1.114501953125E-06
0.980682373046875, 1.09893798828125E-06
0.9796142578125, 1.09893798828125E-06
0.978546142578125, 1.099853515625E-06
0.97747802734375, 1.09527587890625E-06
0.976409912109375, 1.09283447265625E-06
0.975341796875, 1.08184814453125E-06
0.974273681640625, 1.0955810546875E-06
0.97320556640625, 1.0784912109375E-06
0.972137451171875, 1.08642578125E-06
0.9710693359375, 1.06842041015625E-06
0.970001220703125, 1.08917236328125E-06
0.96893310546875, 1.065673828125E-06
0.967864990234375, 1.077880859375E-06
0.966796875, 1.05926513671875E-06
0.965728759765625, 1.07879638671875E-06
0.96466064453125, 1.055908203125E-06
0.963592529296875, 1.065673828125E-06
0.9625244140625, 1.05499267578125E-06
0.961456298828125, 1.0638427734375E-06
0.96038818359375, 1.05255126953125E-06
0.959320068359375, 1.0504150390625E-06
0.958251953125, 1.0552978515625E-06
0.957183837890625, 1.048583984375E-06
0.95611572265625, 1.04888916015625E-06
0.955047607421875, 1.03790283203125E-06
0.9539794921875, 1.05255126953125E-06
0.952911376953125, 1.03485107421875E-06
0.95184326171875, 1.044921875E-06
0.950775146484375, 1.0272216796875E-06
0.94970703125, 1.04827880859375E-06
0.948638916015625, 1.02447509765625E-06
0.94757080078125, 1.03759765625E-06
0.946502685546875, 1.02020263671875E-06
0.9454345703125, 1.03912353515625E-06
0.944366455078125, 1.01959228515625E-06
0.94329833984375, 1.026611328125E-06
0.942230224609375, 1.01959228515625E-06
0.941162109375, 1.02569580078125E-06
0.940093994140625, 1.01654052734375E-06
0.93902587890625, 1.01409912109375E-06
0.937957763671875, 1.02020263671875E-06
0.9368896484375, 1.0125732421875E-06
0.935821533203125, 1.01531982421875E-06
0.93475341796875, 1.0028076171875E-06
0.933685302734375, 1.02020263671875E-06
0.9326171875, 9.99755859375E-07
0.931549072265625, 1.0125732421875E-06
0.93048095703125, 9.9334716796875E-07
0.929412841796875, 1.01531982421875E-06
0.9283447265625, 9.930419921875E-07
0.927276611328125, 1.00494384765625E-06
0.92620849609375, 9.906005859375E-07
0.925140380859375, 1.0064697265625E-06
0.924072265625, 9.8968505859375E-07
0.923004150390625, 9.9456787109375E-07
0.92193603515625, 9.906005859375E-07
0.920867919921875, 9.942626953125E-07
0.9197998046875, 9.881591796875E-07
0.918731689453125, 9.8236083984375E-07
0.91766357421875, 9.9273681640625E-07
0.916595458984375, 9.8175048828125E-07
0.91552734375, 9.8724365234375E-07
0.914459228515625, 9.716796875E-07
0.91339111328125, 9.9273681640625E-07
0.912322998046875, 9.716796875E-07
0.9112548828125, 9.8358154296875E-07
0.910186767578125, 9.6649169921875E-07
0.90911865234375, 9.8785400390625E-07
0.908050537109375, 9.6527099609375E-07
0.906982421875, 9.7808837890625E-07
0.905914306640625, 9.637451171875E-07
0.90484619140625, 9.7808837890625E-07
0.903778076171875, 9.6343994140625E-07
0.9027099609375, 9.661865234375E-07
0.901641845703125, 9.6588134765625E-07
0.90057373046875, 9.66796875E-07
0.899505615234375, 9.6282958984375E-07
0.8984375, 9.5550537109375E-07
0.897369384765625, 9.68017578125E-07
0.89630126953125, 9.552001953125E-07
0.895233154296875, 9.619140625E-07
0.8941650390625, 9.4696044921875E-07
0.893096923828125, 9.6710205078125E-07
0.89202880859375, 9.4635009765625E-07
0.890960693359375, 9.5916748046875E-07
0.889892578125, 9.4146728515625E-07
0.888824462890625, 9.625244140625E-07
0.88775634765625, 9.41162109375E-07
0.886688232421875, 9.527587890625E-07
0.8856201171875, 9.4024658203125E-07
0.884552001953125, 9.527587890625E-07
0.88348388671875, 9.405517578125E-07
0.882415771484375, 9.4146728515625E-07
0.88134765625, 9.4390869140625E-07
0.880279541015625, 9.4085693359375E-07
0.87921142578125, 9.4024658203125E-07
0.878143310546875, 9.3292236328125E-07
0.8770751953125, 9.4573974609375E-07
0.876007080078125, 9.320068359375E-07
0.87493896484375, 9.3994140625E-07
0.873870849609375, 9.2437744140625E-07
0.872802734375, 9.454345703125E-07
0.871734619140625, 9.234619140625E-07
0.87066650390625, 9.368896484375E-07
0.869598388671875, 9.2041015625E-07
0.8685302734375, 9.3963623046875E-07
0.867462158203125, 9.2041015625E-07
0.86639404296875, 9.2987060546875E-07
0.865325927734375, 9.210205078125E-07
0.8642578125, 9.2987060546875E-07
0.863189697265625, 9.197998046875E-07
0.86212158203125, 9.2041015625E-07
0.861053466796875, 9.2376708984375E-07
0.8599853515625, 9.1949462890625E-07
0.858917236328125, 9.2041015625E-07
0.85784912109375, 9.1064453125E-07
0.856781005859375, 9.2620849609375E-07
0.855712890625, 9.09423828125E-07
0.854644775390625, 9.2010498046875E-07
0.85357666015625, 9.033203125E-07
0.852508544921875, 9.2437744140625E-07
0.8514404296875, 9.0301513671875E-07
0.850372314453125, 9.1583251953125E-07
0.84930419921875, 9.0057373046875E-07
0.848236083984375, 9.185791015625E-07
0.84716796875, 8.9996337890625E-07
0.846099853515625, 9.0789794921875E-07
0.84503173828125, 9.0179443359375E-07
0.843963623046875, 9.088134765625E-07
0.8428955078125, 9.0118408203125E-07
0.841827392578125, 8.978271484375E-07
0.84075927734375, 9.0545654296875E-07
0.839691162109375, 8.978271484375E-07
0.838623046875, 9.014892578125E-07
0.837554931640625, 8.892822265625E-07
0.83648681640625, 9.06982421875E-07
0.835418701171875, 8.892822265625E-07
0.8343505859375, 9.0057373046875E-07
0.833282470703125, 8.837890625E-07
0.83221435546875, 9.0423583984375E-07
0.831146240234375, 8.8409423828125E-07
0.830078125, 8.9569091796875E-07
0.829010009765625, 8.8226318359375E-07
0.82794189453125, 8.9813232421875E-07
0.826873779296875, 8.8226318359375E-07
0.8258056640625, 8.87451171875E-07
0.824737548828125, 8.85009765625E-07
0.82366943359375, 8.880615234375E-07
0.822601318359375, 8.8348388671875E-07
0.821533203125, 8.782958984375E-07
0.820465087890625, 8.8897705078125E-07
0.81939697265625, 8.7799072265625E-07
0.818328857421875, 8.843994140625E-07
0.8172607421875, 8.70361328125E-07
0.816192626953125, 8.8958740234375E-07
0.81512451171875, 8.7066650390625E-07
0.814056396484375, 8.8226318359375E-07
0.81298828125, 8.660888671875E-07
0.811920166015625, 8.8623046875E-07
0.81085205078125, 8.660888671875E-07
0.809783935546875, 8.7738037109375E-07
0.8087158203125, 8.65478515625E-07
0.807647705078125, 8.7890625E-07
0.80657958984375, 8.6517333984375E-07
0.805511474609375, 8.6883544921875E-07
0.804443359375, 8.6883544921875E-07
0.803375244140625, 8.685302734375E-07
0.80230712890625, 8.6639404296875E-07
0.801239013671875, 8.599853515625E-07
0.8001708984375, 8.7188720703125E-07
0.799102783203125, 8.5968017578125E-07
0.79803466796875, 8.673095703125E-07
0.796966552734375, 8.526611328125E-07
0.7958984375, 8.7310791015625E-07
0.794830322265625, 8.5205078125E-07
0.79376220703125, 8.6517333984375E-07
0.792694091796875, 8.4930419921875E-07
0.7916259765625, 8.67919921875E-07
0.790557861328125, 8.502197265625E-07
0.78948974609375, 8.5845947265625E-07
0.788421630859375, 8.5052490234375E-07
0.787353515625, 8.6029052734375E-07
0.786285400390625, 8.49609375E-07
0.78521728515625, 8.5113525390625E-07
0.784149169921875, 8.5296630859375E-07
0.7830810546875, 8.5113525390625E-07
0.782012939453125, 8.502197265625E-07
0.78094482421875, 8.4259033203125E-07
0.779876708984375, 8.5601806640625E-07
0.77880859375, 8.4228515625E-07
0.777740478515625, 8.50830078125E-07
0.77667236328125, 8.36181640625E-07
0.775604248046875, 8.551025390625E-07
0.7745361328125, 8.367919921875E-07
0.773468017578125, 8.4686279296875E-07
0.77239990234375, 8.33740234375E-07
0.771331787109375, 8.5052490234375E-07
0.770263671875, 8.3343505859375E-07
0.769195556640625, 8.4197998046875E-07
0.76812744140625, 8.3404541015625E-07
0.767059326171875, 8.428955078125E-07
0.7659912109375, 8.343505859375E-07
0.764923095703125, 8.3343505859375E-07
0.76385498046875, 8.3831787109375E-07
0.762786865234375, 8.3282470703125E-07
0.76171875, 8.349609375E-07
0.760650634765625, 8.245849609375E-07
0.75958251953125, 8.3953857421875E-07
0.758514404296875, 8.258056640625E-07
0.7574462890625, 8.3282470703125E-07
0.756378173828125, 8.203125E-07
0.75531005859375, 8.3740234375E-07
0.754241943359375, 8.2000732421875E-07
0.753173828125, 8.3038330078125E-07
0.752105712890625, 8.1634521484375E-07
0.75103759765625, 8.3343505859375E-07
0.749969482421875, 8.1634521484375E-07
0.7489013671875, 8.233642578125E-07
0.747833251953125, 8.1817626953125E-07
0.74676513671875, 8.2305908203125E-07
0.745697021484375, 8.1787109375E-07
0.74462890625, 8.135986328125E-07
0.743560791015625, 8.197021484375E-07
0.74249267578125, 8.148193359375E-07
0.741424560546875, 8.1573486328125E-07
0.7403564453125, 8.0657958984375E-07
0.739288330078125, 8.2061767578125E-07
0.73822021484375, 8.062744140625E-07
0.737152099609375, 8.1390380859375E-07
0.736083984375, 8.001708984375E-07
0.735015869140625, 8.1756591796875E-07
0.73394775390625, 7.99560546875E-07
0.732879638671875, 8.087158203125E-07
0.7318115234375, 7.9803466796875E-07
0.730743408203125, 8.1024169921875E-07
0.72967529296875, 7.965087890625E-07
0.728607177734375, 8.001708984375E-07
0.7275390625, 7.9681396484375E-07
0.726470947265625, 8.013916015625E-07
0.72540283203125, 7.9345703125E-07
0.724334716796875, 7.9132080078125E-07
0.7232666015625, 7.9620361328125E-07
0.722198486328125, 7.904052734375E-07
0.72113037109375, 7.9193115234375E-07
0.720062255859375, 7.806396484375E-07
0.718994140625, 7.952880859375E-07
0.717926025390625, 7.794189453125E-07
0.71685791015625, 7.87353515625E-07
0.715789794921875, 7.7392578125E-07
0.7147216796875, 7.8857421875E-07
0.713653564453125, 7.7178955078125E-07
0.71258544921875, 7.7850341796875E-07
0.711517333984375, 7.6812744140625E-07
0.71044921875, 7.7880859375E-07
0.709381103515625, 7.6507568359375E-07
0.70831298828125, 7.6812744140625E-07
0.707244873046875, 7.6416015625E-07
0.7061767578125, 7.659912109375E-07
0.705108642578125, 7.5958251953125E-07
0.70404052734375, 7.5469970703125E-07
0.702972412109375, 7.598876953125E-07
0.701904296875, 7.50732421875E-07
0.700836181640625, 7.525634765625E-07
0.69976806640625, 7.4066162109375E-07
0.698699951171875, 7.5225830078125E-07
0.6976318359375, 7.3638916015625E-07
0.696563720703125, 7.421875E-07
0.69549560546875, 7.2784423828125E-07
0.694427490234375, 7.4005126953125E-07
0.693359375, 7.2265625E-07
0.692291259765625, 7.281494140625E-07
0.69122314453125, 7.1624755859375E-07
0.690155029296875, 7.2357177734375E-07
0.6890869140625, 7.0953369140625E-07
0.688018798828125, 7.0892333984375E-07
0.68695068359375, 7.0465087890625E-07
0.685882568359375, 7.0281982421875E-07
0.684814453125, 6.9549560546875E-07
0.683746337890625, 6.884765625E-07
0.68267822265625, 6.9091796875E-07
0.681610107421875, 6.7962646484375E-07
0.6805419921875, 6.7840576171875E-07
0.679473876953125, 6.6497802734375E-07
0.67840576171875, 6.7291259765625E-07
0.677337646484375, 6.5521240234375E-07
0.67626953125, 6.5704345703125E-07
0.675201416015625, 6.40869140625E-07
0.67413330078125, 6.488037109375E-07
0.673065185546875, 6.292724609375E-07
0.6719970703125, 6.304931640625E-07
0.670928955078125, 6.16455078125E-07
0.66986083984375, 6.182861328125E-07
0.668792724609375, 6.0302734375E-07
0.667724609375, 5.9722900390625E-07
0.666656494140625, 5.902099609375E-07
0.66558837890625, 5.8197021484375E-07
0.664520263671875, 5.72509765625E-07
0.6634521484375, 5.596923828125E-07
0.662384033203125, 5.5755615234375E-07
0.66131591796875, 5.438232421875E-07
0.660247802734375, 5.364990234375E-07
0.6591796875, 5.1971435546875E-07
0.658111572265625, 5.2093505859375E-07
0.65704345703125, 4.9957275390625E-07
0.655975341796875, 4.949951171875E-07
0.6549072265625, 4.75555419921875E-07
0.653839111328125, 4.75555419921875E-07
0.65277099609375, 4.532470703125E-07
0.651702880859375, 4.4427490234375E-07
0.650634765625, 4.26971435546875E-07
0.649566650390625, 4.20135498046875E-07
0.64849853515625, 4.00665283203125E-07
0.647430419921875, 3.880615234375E-07
0.6463623046875, 3.75274658203125E-07
0.645294189453125, 3.59893798828125E-07
0.64422607421875, 3.43505859375E-07
0.643157958984375, 3.25469970703125E-07
0.64208984375, 3.15765380859375E-07
0.641021728515625, 2.9388427734375E-07
0.63995361328125, 2.80181884765625E-07
0.638885498046875, 2.56988525390625E-07
0.6378173828125, 2.48565673828125E-07
0.636749267578125, 2.21405029296875E-07
0.63568115234375, 2.07672119140625E-07
0.634613037109375, 1.82861328125E-07
0.633544921875, 1.71295166015625E-07
0.632476806640625, 1.43096923828125E-07
0.63140869140625, 1.2677001953125E-07
0.630340576171875, 1.0211181640625E-07
0.6292724609375, 8.575439453125E-08
0.628204345703125, 5.8990478515625E-08
0.62713623046875, 3.7359619140625E-08
0.626068115234375, 1.53289794921875E-08
0.625, -9.539794921875E-09
0.623931884765625, -3.44879150390625E-08
0.62286376953125, -6.3018798828125E-08
0.621795654296875, -7.9833984375E-08
0.6207275390625, -1.11053466796875E-07
0.619659423828125, -1.3421630859375E-07
0.61859130859375, -1.65283203125E-07
0.617523193359375, -1.86126708984375E-07
0.616455078125, -2.20367431640625E-07
0.615386962890625, -2.451171875E-07
0.61431884765625, -2.77557373046875E-07
0.613250732421875, -3.01116943359375E-07
0.6121826171875, -3.363037109375E-07
0.611114501953125, -3.6407470703125E-07
0.61004638671875, -3.9678955078125E-07
0.608978271484375, -4.25506591796875E-07
0.60791015625, -4.59991455078125E-07
0.606842041015625, -4.9267578125E-07
0.60577392578125, -5.2435302734375E-07
0.604705810546875, -5.5841064453125E-07
0.6036376953125, -5.93048095703125E-07
0.602569580078125, -6.30126953125E-07
0.60150146484375, -6.591796875E-07
0.600433349609375, -6.988525390625E-07
0.599365234375, -7.330322265625E-07
0.598297119140625, -7.733154296875E-07
0.59722900390625, -8.056640625E-07
0.596160888671875, -8.4747314453125E-07
0.5950927734375, -8.8348388671875E-07
0.594024658203125, -9.2498779296875E-07
0.59295654296875, -9.6160888671875E-07
0.591888427734375, -1.00372314453125E-06
0.5908203125, -1.0430908203125E-06
0.589752197265625, -1.08428955078125E-06
0.58868408203125, -1.12548828125E-06
0.587615966796875, -1.16851806640625E-06
0.5865478515625, -1.2103271484375E-06
0.585479736328125, -1.25274658203125E-06
0.58441162109375, -1.29669189453125E-06
0.583343505859375, -1.33880615234375E-06
0.582275390625, -1.38519287109375E-06
0.581207275390625, -1.427001953125E-06
0.58013916015625, -1.47430419921875E-06
0.579071044921875, -1.5203857421875E-06
0.5780029296875, -1.5679931640625E-06
0.576934814453125, -1.61224365234375E-06
0.57586669921875, -1.661376953125E-06
0.574798583984375, -1.70867919921875E-06
0.57373046875, -1.7578125E-06
0.572662353515625, -1.80419921875E-06
0.57159423828125, -1.85638427734375E-06
0.570526123046875, -1.90460205078125E-06
0.5694580078125, -1.9549560546875E-06
0.568389892578125, -2.00408935546875E-06
0.56732177734375, -2.0562744140625E-06
0.566253662109375, -2.10662841796875E-06
0.565185546875, -2.159423828125E-06
0.564117431640625, -2.20977783203125E-06
0.56304931640625, -2.26470947265625E-06
0.561981201171875, -2.31719970703125E-06
0.5609130859375, -2.3712158203125E-06
0.559844970703125, -2.423095703125E-06
0.55877685546875, -2.47833251953125E-06
0.557708740234375, -2.53204345703125E-06
0.556640625, -2.587890625E-06
0.555572509765625, -2.64190673828125E-06
0.55450439453125, -2.69805908203125E-06
0.553436279296875, -2.75543212890625E-06
0.5523681640625, -2.8094482421875E-06
0.551300048828125, -2.867431640625E-06
0.55023193359375, -2.923583984375E-06
0.549163818359375, -2.982177734375E-06
0.548095703125, -3.0389404296875E-06
0.547027587890625, -3.0987548828125E-06
0.54595947265625, -3.155517578125E-06
0.544891357421875, -3.21624755859375E-06
0.5438232421875, -3.2708740234375E-06
0.542755126953125, -3.33221435546875E-06
0.54168701171875, -3.38958740234375E-06
0.540618896484375, -3.45245361328125E-06
0.53955078125, -3.5101318359375E-06
0.538482666015625, -3.5723876953125E-06
0.53741455078125, -3.63311767578125E-06
0.536346435546875, -3.6944580078125E-06
0.5352783203125, -3.7548828125E-06
0.534210205078125, -3.81744384765625E-06
0.53314208984375, -3.880615234375E-06
0.532073974609375, -3.941650390625E-06
0.531005859375, -4.00543212890625E-06
0.529937744140625, -4.0655517578125E-06
0.52886962890625, -4.13177490234375E-06
0.527801513671875, -4.1912841796875E-06
0.5267333984375, -4.25811767578125E-06
0.525665283203125, -4.31854248046875E-06
0.52459716796875, -4.38690185546875E-06
0.523529052734375, -4.44610595703125E-06
0.5224609375, -4.51507568359375E-06
0.521392822265625, -4.5751953125E-06
0.52032470703125, -4.644775390625E-06
0.519256591796875, -4.70550537109375E-06
0.5181884765625, -4.774169921875E-06
0.517120361328125, -4.8370361328125E-06
0.51605224609375, -4.90325927734375E-06
0.514984130859375, -4.9676513671875E-06
0.513916015625, -5.03326416015625E-06
0.512847900390625, -5.1019287109375E-06
0.51177978515625, -5.16571044921875E-06
0.510711669921875, -5.23284912109375E-06
0.5096435546875, -5.2972412109375E-06
0.508575439453125, -5.3680419921875E-06
0.50750732421875, -5.4296875E-06
0.506439208984375, -5.50079345703125E-06
0.50537109375, -5.562744140625E-06
0.504302978515625, -5.6341552734375E-06
0.50323486328125, -5.69488525390625E-06
0.502166748046875, -5.765380859375E-06
0.5010986328125, -5.8294677734375E-06
0.500030517578125, -5.90087890625E-06
0.49896240234375, -5.96405029296875E-06
0.497894287109375, -6.03363037109375E-06
0.496826171875, -6.1004638671875E-06
0.495758056640625, -6.1676025390625E-06
0.49468994140625, -6.2347412109375E-06
0.493621826171875, -6.298828125E-06
0.4925537109375, -6.3690185546875E-06
0.491485595703125, -6.43310546875E-06
0.49041748046875, -6.50634765625E-06
0.489349365234375, -6.5673828125E-06
0.48828125, -6.6436767578125E-06
0.487213134765625, -6.7047119140625E-06
0.48614501953125, -6.7779541015625E-06
0.485076904296875, -6.8389892578125E-06
0.4840087890625, -6.915283203125E-06
0.482940673828125, -6.976318359375E-06
0.48187255859375, -7.0465087890625E-06
0.480804443359375, -7.110595703125E-06
0.479736328125, -7.183837890625E-06
0.478668212890625, -7.244873046875E-06
0.47760009765625, -7.3150634765625E-06
0.476531982421875, -7.3822021484375E-06
0.4754638671875, -7.452392578125E-06
0.474395751953125, -7.5164794921875E-06
0.47332763671875, -7.5836181640625E-06
0.472259521484375, -7.65380859375E-06
0.47119140625, -7.7178955078125E-06
0.470123291015625, -7.7880859375E-06
0.46905517578125, -7.84912109375E-06
0.467987060546875, -7.9254150390625E-06
0.4669189453125, -7.9833984375E-06
0.465850830078125, -8.050537109375E-06
0.46478271484375, -8.111572265625E-06
0.463714599609375, -8.1878662109375E-06
0.462646484375, -8.2427978515625E-06
0.461578369140625, -8.3160400390625E-06
0.46051025390625, -8.3740234375E-06
0.459442138671875, -8.447265625E-06
0.4583740234375, -8.5052490234375E-06
0.457305908203125, -8.575439453125E-06
0.45623779296875, -8.636474609375E-06
0.455169677734375, -8.70361328125E-06
0.4541015625, -8.7646484375E-06
0.453033447265625, -8.82568359375E-06
0.45196533203125, -8.8958740234375E-06
0.450897216796875, -8.953857421875E-06
0.4498291015625, -9.02099609375E-06
0.448760986328125, -9.075927734375E-06
0.44769287109375, -9.149169921875E-06
0.446624755859375, -9.2010498046875E-06
0.445556640625, -9.271240234375E-06
0.444488525390625, -9.3231201171875E-06
0.44342041015625, -9.393310546875E-06
0.442352294921875, -9.4451904296875E-06
0.4412841796875, -9.50927734375E-06
0.440216064453125, -9.564208984375E-06
0.43914794921875, -9.63134765625E-06
0.438079833984375, -9.6832275390625E-06
0.43701171875, -9.7442626953125E-06
0.435943603515625, -9.80224609375E-06
0.43487548828125, -9.86328125E-06
0.433807373046875, -9.918212890625E-06
0.4327392578125, -9.9700927734375E-06
0.431671142578125, -1.00341796875E-05
0.43060302734375, -1.00830078125E-05
0.429534912109375, -1.014404296875E-05
0.428466796875, -1.01898193359375E-05
0.427398681640625, -1.025390625E-05
0.42633056640625, -1.02935791015625E-05
0.425262451171875, -1.03546142578125E-05
0.4241943359375, -1.0400390625E-05
0.423126220703125, -1.046142578125E-05
0.42205810546875, -1.05010986328125E-05
0.420989990234375, -1.055908203125E-05
0.419921875, -1.0601806640625E-05
0.418853759765625, -1.06597900390625E-05
0.41778564453125, -1.0699462890625E-05
0.416717529296875, -1.0748291015625E-05
0.4156494140625, -1.0797119140625E-05
0.414581298828125, -1.08428955078125E-05
0.41351318359375, -1.08856201171875E-05
0.412445068359375, -1.092529296875E-05
0.411376953125, -1.09771728515625E-05
0.410308837890625, -1.10076904296875E-05
0.40924072265625, -1.10565185546875E-05
0.408172607421875, -1.10870361328125E-05
0.4071044921875, -1.11419677734375E-05
0.406036376953125, -1.1163330078125E-05
0.40496826171875, -1.1212158203125E-05
0.403900146484375, -1.1236572265625E-05
0.40283203125, -1.12884521484375E-05
0.401763916015625, -1.13067626953125E-05
0.40069580078125, -1.1346435546875E-05
0.399627685546875, -1.13739013671875E-05
0.3985595703125, -1.14105224609375E-05
0.397491455078125, -1.1431884765625E-05
0.39642333984375, -1.146240234375E-05
0.395355224609375, -1.14898681640625E-05
0.394287109375, -1.15142822265625E-05
0.393218994140625, -1.153564453125E-05
0.39215087890625, -1.1553955078125E-05
0.391082763671875, -1.158447265625E-05
0.3900146484375, -1.15936279296875E-05
0.388946533203125, -1.16180419921875E-05
0.38787841796875, -1.16180419921875E-05
0.386810302734375, -1.16485595703125E-05
0.3857421875, -1.16424560546875E-05
0.384674072265625, -1.1663818359375E-05
0.38360595703125, -1.16607666015625E-05
0.382537841796875, -1.168212890625E-05
0.3814697265625, -1.1669921875E-05
0.380401611328125, -1.16790771484375E-05
0.37933349609375, -1.1676025390625E-05
0.378265380859375, -1.1676025390625E-05
0.377197265625, -1.16668701171875E-05
0.376129150390625, -1.165771484375E-05
0.37506103515625, -1.1651611328125E-05
0.373992919921875, -1.163330078125E-05
0.3729248046875, -1.16180419921875E-05
0.371856689453125, -1.1590576171875E-05
0.37078857421875, -1.15814208984375E-05
0.369720458984375, -1.1541748046875E-05
0.36865234375, -1.15203857421875E-05
0.367584228515625, -1.1474609375E-05
0.36651611328125, -1.1456298828125E-05
0.365447998046875, -1.1395263671875E-05
0.3643798828125, -1.136474609375E-05
0.363311767578125, -1.13006591796875E-05
0.36224365234375, -1.12640380859375E-05
0.361175537109375, -1.1187744140625E-05
0.360107421875, -1.11328125E-05
0.359039306640625, -1.10565185546875E-05
0.35797119140625, -1.0986328125E-05
0.356903076171875, -1.090087890625E-05
0.3558349609375, -1.0809326171875E-05
0.354766845703125, -1.07208251953125E-05
0.35369873046875, -1.06109619140625E-05
0.352630615234375, -1.05010986328125E-05
0.3515625, -1.0369873046875E-05
0.350494384765625, -1.02569580078125E-05
0.34942626953125, -1.0101318359375E-05
0.348358154296875, -9.9578857421875E-06
0.3472900390625, -9.7808837890625E-06
0.346221923828125, -9.6221923828125E-06
0.34515380859375, -9.41162109375E-06
0.344085693359375, -9.2193603515625E-06
0.343017578125, -8.9813232421875E-06
0.341949462890625, -8.758544921875E-06
0.34088134765625, -8.4869384765625E-06
0.339813232421875, -8.21533203125E-06
0.3387451171875, -7.916259765625E-06
0.337677001953125, -7.6141357421875E-06
0.33660888671875, -7.281494140625E-06
0.335540771484375, -6.9427490234375E-06
0.33447265625, -6.610107421875E-06
0.333404541015625, -6.2591552734375E-06
0.33233642578125, -5.9295654296875E-06
0.331268310546875, -5.5908203125E-06
0.3302001953125, -5.2978515625E-06
0.329132080078125, -4.9896240234375E-06
0.32806396484375, -4.722900390625E-06
0.326995849609375, -4.4525146484375E-06
0.325927734375, -4.23370361328125E-06
0.324859619140625, -3.99505615234375E-06
0.32379150390625, -3.80615234375E-06
0.322723388671875, -3.6041259765625E-06
0.3216552734375, -3.44940185546875E-06
0.320587158203125, -3.27545166015625E-06
0.31951904296875, -3.13690185546875E-06
0.318450927734375, -2.99591064453125E-06
0.3173828125, -2.88055419921875E-06
0.316314697265625, -2.7569580078125E-06
0.31524658203125, -2.65167236328125E-06
0.314178466796875, -2.55767822265625E-06
0.3131103515625, -2.46429443359375E-06
0.312042236328125, -2.3834228515625E-06
0.31097412109375, -2.29583740234375E-06
0.309906005859375, -2.2393798828125E-06
0.308837890625, -2.158203125E-06
0.307769775390625, -2.1063232421875E-06
0.30670166015625, -2.03277587890625E-06
0.305633544921875, -1.99951171875E-06
0.3045654296875, -1.9305419921875E-06
0.303497314453125, -1.89483642578125E-06
0.30242919921875, -1.8377685546875E-06
0.301361083984375, -1.8121337890625E-06
0.30029296875, -1.759033203125E-06
0.299224853515625, -1.7291259765625E-06
0.29815673828125, -1.690673828125E-06
0.297088623046875, -1.66473388671875E-06
0.2960205078125, -1.62750244140625E-06
0.294952392578125, -1.59820556640625E-06
0.29388427734375, -1.57623291015625E-06
0.292816162109375, -1.54632568359375E-06
0.291748046875, -1.5252685546875E-06
0.290679931640625, -1.49261474609375E-06
0.28961181640625, -1.48590087890625E-06
0.288543701171875, -1.451416015625E-06
0.2874755859375, -1.4410400390625E-06
0.286407470703125, -1.40838623046875E-06
0.28533935546875, -1.40869140625E-06
0.284271240234375, -1.37481689453125E-06
0.283203125, -1.3690185546875E-06
0.282135009765625, -1.34246826171875E-06
0.28106689453125, -1.34124755859375E-06
0.279998779296875, -1.3140869140625E-06
0.2789306640625, -1.30706787109375E-06
0.277862548828125, -1.28936767578125E-06
0.27679443359375, -1.28204345703125E-06
0.275726318359375, -1.26495361328125E-06
0.274658203125, -1.251220703125E-06
0.273590087890625, -1.2469482421875E-06
0.27252197265625, -1.2298583984375E-06
0.271453857421875, -1.22344970703125E-06
0.2703857421875, -1.20361328125E-06
0.269317626953125, -1.20819091796875E-06
0.26824951171875, -1.1859130859375E-06
0.267181396484375, -1.1859130859375E-06
0.26611328125, -1.16424560546875E-06
0.265045166015625, -1.1724853515625E-06
0.26397705078125, -1.14898681640625E-06
0.262908935546875, -1.15081787109375E-06
0.2618408203125, -1.1328125E-06
0.260772705078125, -1.1370849609375E-06
0.25970458984375, -1.11968994140625E-06
0.258636474609375, -1.11602783203125E-06
0.257568359375, -1.1077880859375E-06
0.256500244140625, -1.103515625E-06
0.25543212890625, -1.09466552734375E-06
0.254364013671875, -1.083984375E-06
0.2532958984375, -1.0858154296875E-06
0.252227783203125, -1.072998046875E-06
0.25115966796875, -1.07177734375E-06
0.250091552734375, -1.0565185546875E-06
0.2490234375, -1.06475830078125E-06
0.247955322265625, -1.04644775390625E-06
0.24688720703125, -1.05010986328125E-06
0.245819091796875, -1.03240966796875E-06
0.2447509765625, -1.04248046875E-06
0.243682861328125, -1.0235595703125E-06
0.24261474609375, -1.02691650390625E-06
0.241546630859375, -1.01409912109375E-06
0.240478515625, -1.01898193359375E-06
0.239410400390625, -1.005859375E-06
0.23834228515625, -1.00341796875E-06
0.237274169921875, -9.99755859375E-07
0.2362060546875, -9.9517822265625E-07
0.235137939453125, -9.89990234375E-07
0.23406982421875, -9.808349609375E-07
0.233001708984375, -9.8541259765625E-07
0.23193359375, -9.735107421875E-07
0.230865478515625, -9.75341796875E-07
0.22979736328125, -9.613037109375E-07
0.228729248046875, -9.7137451171875E-07
0.2276611328125, -9.5489501953125E-07
0.226593017578125, -9.600830078125E-07
0.22552490234375, -9.454345703125E-07
0.224456787109375, -9.552001953125E-07
0.223388671875, -9.3963623046875E-07
0.222320556640625, -9.4207763671875E-07
0.22125244140625, -9.3353271484375E-07
0.220184326171875, -9.368896484375E-07
0.2191162109375, -9.271240234375E-07
0.218048095703125, -9.246826171875E-07
0.21697998046875, -9.234619140625E-07
0.215911865234375, -9.185791015625E-07
0.21484375, -9.1644287109375E-07
0.213775634765625, -9.06982421875E-07
0.21270751953125, -9.1461181640625E-07
0.211639404296875, -9.0179443359375E-07
0.2105712890625, -9.0606689453125E-07
0.209503173828125, -8.9263916015625E-07
0.20843505859375, -9.027099609375E-07
0.207366943359375, -8.8836669921875E-07
0.206298828125, -8.9263916015625E-07
0.205230712890625, -8.8134765625E-07
0.20416259765625, -8.88671875E-07
0.203094482421875, -8.7677001953125E-07
0.2020263671875, -8.7890625E-07
0.200958251953125, -8.721923828125E-07
0.19989013671875, -8.7432861328125E-07
0.198822021484375, -8.67919921875E-07
0.19775390625, -8.6456298828125E-07
0.196685791015625, -8.65478515625E-07
0.19561767578125, -8.59375E-07
0.194549560546875, -8.5968017578125E-07
0.1934814453125, -8.50830078125E-07
0.192413330078125, -8.575439453125E-07
0.19134521484375, -8.465576171875E-07
0.190277099609375, -8.5052490234375E-07
0.189208984375, -8.392333984375E-07
0.188140869140625, -8.489990234375E-07
0.18707275390625, -8.355712890625E-07
0.186004638671875, -8.4014892578125E-07
0.1849365234375, -8.3038330078125E-07
0.183868408203125, -8.367919921875E-07
0.18280029296875, -8.270263671875E-07
0.181732177734375, -8.2763671875E-07
0.1806640625, -8.23974609375E-07
0.179595947265625, -8.245849609375E-07
0.17852783203125, -8.2000732421875E-07
0.177459716796875, -8.160400390625E-07
0.1763916015625, -8.1878662109375E-07
0.175323486328125, -8.1268310546875E-07
0.17425537109375, -8.1329345703125E-07
0.173187255859375, -8.0413818359375E-07
0.172119140625, -8.1207275390625E-07
0.171051025390625, -8.0169677734375E-07
0.16998291015625, -8.0596923828125E-07
0.168914794921875, -7.958984375E-07
0.1678466796875, -8.038330078125E-07
0.166778564453125, -7.9315185546875E-07
0.16571044921875, -7.9681396484375E-07
0.164642333984375, -7.8887939453125E-07
0.16357421875, -7.9437255859375E-07
0.162506103515625, -7.861328125E-07
0.16143798828125, -7.8643798828125E-07
0.160369873046875, -7.843017578125E-07
0.1593017578125, -7.8460693359375E-07
0.158233642578125, -7.806396484375E-07
0.15716552734375, -7.763671875E-07
0.156097412109375, -7.80029296875E-07
0.155029296875, -7.7362060546875E-07
0.153961181640625, -7.7545166015625E-07
0.15289306640625, -7.6690673828125E-07
0.151824951171875, -7.7423095703125E-07
0.1507568359375, -7.647705078125E-07
0.149688720703125, -7.6904296875E-07
0.14862060546875, -7.6019287109375E-07
0.147552490234375, -7.672119140625E-07
0.146484375, -7.5775146484375E-07
0.145416259765625, -7.611083984375E-07
0.14434814453125, -7.5469970703125E-07
0.143280029296875, -7.5897216796875E-07
0.1422119140625, -7.51953125E-07
0.141143798828125, -7.51953125E-07
0.14007568359375, -7.5042724609375E-07
0.139007568359375, -7.4981689453125E-07
0.137939453125, -7.476806640625E-07
0.136871337890625, -7.4310302734375E-07
0.13580322265625, -7.4737548828125E-07
0.134735107421875, -7.40966796875E-07
0.1336669921875, -7.427978515625E-07
0.132598876953125, -7.354736328125E-07
0.13153076171875, -7.4310302734375E-07
0.130462646484375, -7.33642578125E-07
0.12939453125, -7.379150390625E-07
0.128326416015625, -7.2967529296875E-07
0.12725830078125, -7.366943359375E-07
0.126190185546875, -7.275390625E-07
0.1251220703125, -7.3089599609375E-07
0.124053955078125, -7.2540283203125E-07
0.12298583984375, -7.2906494140625E-07
0.121917724609375, -7.2296142578125E-07
0.120849609375, -7.232666015625E-07
0.119781494140625, -7.2265625E-07
0.11871337890625, -7.2113037109375E-07
0.117645263671875, -7.196044921875E-07
0.1165771484375, -7.1563720703125E-07
0.115509033203125, -7.1929931640625E-07
0.11444091796875, -7.1380615234375E-07
0.113372802734375, -7.159423828125E-07
0.1123046875, -7.0953369140625E-07
0.111236572265625, -7.159423828125E-07
0.11016845703125, -7.0770263671875E-07
0.109100341796875, -7.1136474609375E-07
0.1080322265625, -7.0404052734375E-07
0.106964111328125, -7.110595703125E-07
0.10589599609375, -7.025146484375E-07
0.104827880859375, -7.0587158203125E-07
0.103759765625, -7.0068359375E-07
0.102691650390625, -7.0465087890625E-07
0.10162353515625, -6.9915771484375E-07
0.100555419921875, -6.99462890625E-07
0.0994873046875, -6.9915771484375E-07
0.098419189453125, -6.9793701171875E-07
0.09735107421875, -6.964111328125E-07
0.096282958984375, -6.9244384765625E-07
0.09521484375, -6.976318359375E-07
0.094146728515625, -6.9122314453125E-07
0.09307861328125, -6.9427490234375E-07
0.092010498046875, -6.8695068359375E-07
0.0909423828125, -6.94580078125E-07
0.089874267578125, -6.8572998046875E-07
0.08880615234375, -6.9061279296875E-07
0.087738037109375, -6.829833984375E-07
0.086669921875, -6.903076171875E-07
0.085601806640625, -6.82373046875E-07
0.08453369140625, -6.84814453125E-07
0.083465576171875, -6.8145751953125E-07
0.0823974609375, -6.8450927734375E-07
0.081329345703125, -6.8023681640625E-07
0.08026123046875, -6.793212890625E-07
0.079193115234375, -6.805419921875E-07
0.078125, -6.7901611328125E-07
0.077056884765625, -6.787109375E-07
0.07598876953125, -6.7352294921875E-07
0.074920654296875, -6.79931640625E-07
0.0738525390625, -6.7291259765625E-07
0.072784423828125, -6.7657470703125E-07
0.07171630859375, -6.6925048828125E-07
0.070648193359375, -6.781005859375E-07
0.069580078125, -6.6864013671875E-07
0.068511962890625, -6.73828125E-07
0.06744384765625, -6.6680908203125E-07
0.066375732421875, -6.7413330078125E-07
0.0653076171875, -6.6680908203125E-07
0.064239501953125, -6.689453125E-07
0.06317138671875, -6.6650390625E-07
0.062103271484375, -6.6864013671875E-07
0.06103515625, -6.658935546875E-07
0.059967041015625, -6.6436767578125E-07
0.05889892578125, -6.6680908203125E-07
0.057830810546875, -6.6375732421875E-07
0.0567626953125, -6.6497802734375E-07
0.055694580078125, -6.597900390625E-07
0.05462646484375, -6.6680908203125E-07
0.053558349609375, -6.5948486328125E-07
0.052490234375, -6.640625E-07
0.051422119140625, -6.5673828125E-07
0.05035400390625, -6.65283203125E-07
0.049285888671875, -6.5673828125E-07
0.0482177734375, -6.6131591796875E-07
0.047149658203125, -6.5582275390625E-07
0.04608154296875, -6.6162109375E-07
0.045013427734375, -6.5582275390625E-07
0.0439453125, -6.5765380859375E-07
0.042877197265625, -6.5643310546875E-07
0.04180908203125, -6.573486328125E-07
0.040740966796875, -6.561279296875E-07
0.0396728515625, -6.5338134765625E-07
0.038604736328125, -6.5765380859375E-07
0.03753662109375, -6.5338134765625E-07
0.036468505859375, -6.5582275390625E-07
0.035400390625, -6.500244140625E-07
0.034332275390625, -6.5765380859375E-07
0.03326416015625, -6.50634765625E-07
0.032196044921875, -6.5582275390625E-07
0.0311279296875, -6.488037109375E-07
0.030059814453125, -6.5673828125E-07
0.02899169921875, -6.494140625E-07
0.027923583984375, -6.53076171875E-07
0.02685546875, -6.500244140625E-07
0.025787353515625, -6.536865234375E-07
0.02471923828125, -6.494140625E-07
0.023651123046875, -6.50634765625E-07
0.0225830078125, -6.5093994140625E-07
0.021514892578125, -6.5093994140625E-07
0.02044677734375, -6.50634765625E-07
0.019378662109375, -6.4788818359375E-07
0.018310546875, -6.5338134765625E-07
0.017242431640625, -6.48193359375E-07
0.01617431640625, -6.5155029296875E-07
0.015106201171875, -6.45751953125E-07
0.0140380859375, -6.5338134765625E-07
0.012969970703125, -6.4666748046875E-07
0.01190185546875, -6.5155029296875E-07
0.010833740234375, -6.4605712890625E-07
0.009765625, -6.524658203125E-07
0.008697509765625, -6.4697265625E-07
0.00762939453125, -6.5032958984375E-07
0.006561279296875, -6.4727783203125E-07
0.0054931640625, -6.5155029296875E-07
0.004425048828125, -6.48193359375E-07
0.00335693359375, -6.488037109375E-07
0.002288818359375, -6.500244140625E-07
0.001220703125, -6.494140625E-07
0.000152587890625, -6.5032958984375E-07
-0.00091552734375, -6.4697265625E-07
0.000152587890625, -6.31103515625E-07
0.001220703125, -6.11572265625E-07
0.002288818359375, -6.01806640625E-07
0.00335693359375, -5.8563232421875E-07
0.004425048828125, -5.8197021484375E-07
0.0054931640625, -5.6610107421875E-07
0.006561279296875, -5.609130859375E-07
0.00762939453125, -5.4779052734375E-07
0.008697509765625, -5.4595947265625E-07
0.009765625, -5.328369140625E-07
0.010833740234375, -5.2886962890625E-07
0.01190185546875, -5.2001953125E-07
0.012969970703125, -5.1605224609375E-07
0.0140380859375, -5.078125E-07
0.015106201171875, -5.010986328125E-07
0.01617431640625, -4.98046875E-07
0.017242431640625, -4.9078369140625E-07
0.018310546875, -4.8614501953125E-07
0.019378662109375, -4.783935546875E-07
0.02044677734375, -4.78424072265625E-07
0.021514892578125, -4.70428466796875E-07
0.0225830078125, -4.68841552734375E-07
0.023651123046875, -4.59381103515625E-07
0.02471923828125, -4.6258544921875E-07
0.025787353515625, -4.51873779296875E-07
0.02685546875, -4.52667236328125E-07
0.027923583984375, -4.44061279296875E-07
0.02899169921875, -4.462890625E-07
0.030059814453125, -4.3780517578125E-07
0.0311279296875, -4.36767578125E-07
0.032196044921875, -4.32281494140625E-07
0.03326416015625, -4.312744140625E-07
0.034332275390625, -4.259033203125E-07
0.035400390625, -4.22760009765625E-07
0.036468505859375, -4.21600341796875E-07
0.03753662109375, -4.1766357421875E-07
0.038604736328125, -4.15435791015625E-07
0.0396728515625, -4.09423828125E-07
0.040740966796875, -4.122314453125E-07
0.04180908203125, -4.05059814453125E-07
0.042877197265625, -4.05548095703125E-07
0.0439453125, -3.98468017578125E-07
0.045013427734375, -4.0264892578125E-07
0.04608154296875, -3.94561767578125E-07
0.047149658203125, -3.9599609375E-07
0.0482177734375, -3.8995361328125E-07
0.049285888671875, -3.9288330078125E-07
0.05035400390625, -3.8580322265625E-07
0.051422119140625, -3.86505126953125E-07
0.052490234375, -3.8226318359375E-07
0.053558349609375, -3.83056640625E-07
0.05462646484375, -3.78570556640625E-07
0.055694580078125, -3.76434326171875E-07
0.0567626953125, -3.76800537109375E-07
0.057830810546875, -3.73046875E-07
0.05889892578125, -3.7261962890625E-07
0.059967041015625, -3.6724853515625E-07
0.06103515625, -3.71002197265625E-07
0.062103271484375, -3.642578125E-07
0.06317138671875, -3.6627197265625E-07
0.064239501953125, -3.5986328125E-07
0.0653076171875, -3.6444091796875E-07
0.066375732421875, -3.57330322265625E-07
0.06744384765625, -3.594970703125E-07
0.068511962890625, -3.5382080078125E-07
0.069580078125, -3.57391357421875E-07
0.070648193359375, -3.51287841796875E-07
0.07171630859375, -3.521728515625E-07
0.072784423828125, -3.4918212890625E-07
0.0738525390625, -3.49609375E-07
0.074920654296875, -3.46710205078125E-07
0.07598876953125, -3.43963623046875E-07
0.077056884765625, -3.458251953125E-07
0.078125, -3.41766357421875E-07
0.079193115234375, -3.42437744140625E-07
0.08026123046875, -3.3721923828125E-07
0.081329345703125, -3.41827392578125E-07
0.0823974609375, -3.3526611328125E-07
0.083465576171875, -3.37738037109375E-07
0.08453369140625, -3.31207275390625E-07
0.085601806640625, -3.36334228515625E-07
0.086669921875, -3.29559326171875E-07
0.087738037109375, -3.3197021484375E-07
0.08880615234375, -3.27484130859375E-07
0.089874267578125, -3.30322265625E-07
0.0909423828125, -3.25286865234375E-07
0.092010498046875, -3.25439453125E-07
0.09307861328125, -3.24249267578125E-07
0.094146728515625, -3.23333740234375E-07
0.09521484375, -3.21746826171875E-07
0.096282958984375, -3.18756103515625E-07
0.09735107421875, -3.21441650390625E-07
0.098419189453125, -3.1695556640625E-07
0.0994873046875, -3.1890869140625E-07
0.100555419921875, -3.1292724609375E-07
0.10162353515625, -3.18145751953125E-07
0.102691650390625, -3.1121826171875E-07
0.103759765625, -3.145751953125E-07
0.104827880859375, -3.08349609375E-07
0.10589599609375, -3.1341552734375E-07
0.106964111328125, -3.07220458984375E-07
0.1080322265625, -3.0908203125E-07
0.109100341796875, -3.05511474609375E-07
0.11016845703125, -3.0767822265625E-07
0.111236572265625, -3.03680419921875E-07
0.1123046875, -3.03131103515625E-07
0.113372802734375, -3.0316162109375E-07
0.11444091796875, -3.013916015625E-07
0.115509033203125, -3.00933837890625E-07
0.1165771484375, -2.97576904296875E-07
0.117645263671875, -3.0078125E-07
0.11871337890625, -2.95928955078125E-07
0.119781494140625, -2.97760009765625E-07
0.120849609375, -2.92388916015625E-07
0.121917724609375, -2.97637939453125E-07
0.12298583984375, -2.9119873046875E-07
0.124053955078125, -2.94036865234375E-07
0.1251220703125, -2.886962890625E-07
0.126190185546875, -2.9296875E-07
0.12725830078125, -2.874755859375E-07
0.128326416015625, -2.88970947265625E-07
0.12939453125, -2.862548828125E-07
0.130462646484375, -2.8759765625E-07
0.13153076171875, -2.8515625E-07
0.132598876953125, -2.835693359375E-07
0.1336669921875, -2.84271240234375E-07
0.134735107421875, -2.82257080078125E-07
0.13580322265625, -2.82440185546875E-07
0.136871337890625, -2.78594970703125E-07
0.137939453125, -2.821044921875E-07
0.139007568359375, -2.7728271484375E-07
0.14007568359375, -2.7947998046875E-07
0.141143798828125, -2.74169921875E-07
0.1422119140625, -2.789306640625E-07
0.143280029296875, -2.7325439453125E-07
0.14434814453125, -2.75390625E-07
0.145416259765625, -2.71209716796875E-07
0.146484375, -2.74688720703125E-07
0.147552490234375, -2.7020263671875E-07
0.14862060546875, -2.70965576171875E-07
0.149688720703125, -2.68890380859375E-07
0.1507568359375, -2.69866943359375E-07
0.151824951171875, -2.67547607421875E-07
0.15289306640625, -2.6593017578125E-07
0.153961181640625, -2.674560546875E-07
0.155029296875, -2.65045166015625E-07
0.156097412109375, -2.65533447265625E-07
0.15716552734375, -2.61444091796875E-07
0.158233642578125, -2.64923095703125E-07
0.1593017578125, -2.60589599609375E-07
0.160369873046875, -2.6214599609375E-07
0.16143798828125, -2.578125E-07
0.162506103515625, -2.61810302734375E-07
0.16357421875, -2.5665283203125E-07
0.164642333984375, -2.58636474609375E-07
0.16571044921875, -2.547607421875E-07
0.166778564453125, -2.57904052734375E-07
0.1678466796875, -2.5360107421875E-07
0.168914794921875, -2.54180908203125E-07
0.16998291015625, -2.5286865234375E-07
0.171051025390625, -2.53448486328125E-07
0.172119140625, -2.513427734375E-07
0.173187255859375, -2.4945068359375E-07
0.17425537109375, -2.510986328125E-07
0.175323486328125, -2.48779296875E-07
0.1763916015625, -2.491455078125E-07
0.177459716796875, -2.4560546875E-07
0.17852783203125, -2.49053955078125E-07
0.179595947265625, -2.44659423828125E-07
0.1806640625, -2.46307373046875E-07
0.181732177734375, -2.41912841796875E-07
0.18280029296875, -2.4603271484375E-07
0.183868408203125, -2.41180419921875E-07
0.1849365234375, -2.4285888671875E-07
0.186004638671875, -2.3974609375E-07
0.18707275390625, -2.4237060546875E-07
0.188140869140625, -2.3785400390625E-07
0.189208984375, -2.388916015625E-07
0.190277099609375, -2.37274169921875E-07
0.19134521484375, -2.37823486328125E-07
0.192413330078125, -2.35870361328125E-07
0.1934814453125, -2.347412109375E-07
0.194549560546875, -2.35748291015625E-07
0.19561767578125, -2.3345947265625E-07
0.196685791015625, -2.3388671875E-07
0.19775390625, -2.30621337890625E-07
0.198822021484375, -2.33795166015625E-07
0.19989013671875, -2.29705810546875E-07
0.200958251953125, -2.31414794921875E-07
0.2020263671875, -2.271728515625E-07
0.203094482421875, -2.31048583984375E-07
0.20416259765625, -2.2625732421875E-07
0.205230712890625, -2.28118896484375E-07
0.206298828125, -2.24761962890625E-07
0.207366943359375, -2.2711181640625E-07
0.20843505859375, -2.23724365234375E-07
0.209503173828125, -2.239990234375E-07
0.2105712890625, -2.2308349609375E-07
0.211639404296875, -2.23236083984375E-07
0.21270751953125, -2.21588134765625E-07
0.213775634765625, -2.20001220703125E-07
0.21484375, -2.21099853515625E-07
0.215911865234375, -2.1923828125E-07
0.21697998046875, -2.19635009765625E-07
0.218048095703125, -2.16033935546875E-07
0.2191162109375, -2.19818115234375E-07
0.220184326171875, -2.1490478515625E-07
0.22125244140625, -2.17193603515625E-07
0.222320556640625, -2.12738037109375E-07
0.223388671875, -2.166748046875E-07
0.224456787109375, -2.1185302734375E-07
0.22552490234375, -2.13958740234375E-07
0.226593017578125, -2.1075439453125E-07
0.2276611328125, -2.13134765625E-07
0.228729248046875, -2.09503173828125E-07
0.22979736328125, -2.1026611328125E-07
0.230865478515625, -2.09014892578125E-07
0.23193359375, -2.09442138671875E-07
0.233001708984375, -2.07733154296875E-07
0.23406982421875, -2.0587158203125E-07
0.235137939453125, -2.0782470703125E-07
0.2362060546875, -2.04681396484375E-07
0.237274169921875, -2.06085205078125E-07
0.23834228515625, -2.017822265625E-07
0.239410400390625, -2.0599365234375E-07
0.240478515625, -2.012939453125E-07
0.241546630859375, -2.03521728515625E-07
0.24261474609375, -1.99005126953125E-07
0.243682861328125, -2.03369140625E-07
0.2447509765625, -1.9781494140625E-07
0.245819091796875, -2.00103759765625E-07
0.24688720703125, -1.96990966796875E-07
0.247955322265625, -1.993408203125E-07
0.2490234375, -1.96044921875E-07
0.250091552734375, -1.959228515625E-07
0.25115966796875, -1.956787109375E-07
0.252227783203125, -1.9482421875E-07
0.2532958984375, -1.94305419921875E-07
0.254364013671875, -1.9171142578125E-07
0.25543212890625, -1.94427490234375E-07
0.256500244140625, -1.90948486328125E-07
0.257568359375, -1.927490234375E-07
0.258636474609375, -1.8780517578125E-07
0.25970458984375, -1.92352294921875E-07
0.260772705078125, -1.86798095703125E-07
0.2618408203125, -1.89849853515625E-07
0.262908935546875, -1.849365234375E-07
0.26397705078125, -1.89056396484375E-07
0.265045166015625, -1.84051513671875E-07
0.26611328125, -1.8597412109375E-07
0.267181396484375, -1.83563232421875E-07
0.26824951171875, -1.84844970703125E-07
0.269317626953125, -1.8218994140625E-07
0.2703857421875, -1.81396484375E-07
0.271453857421875, -1.8212890625E-07
0.27252197265625, -1.8017578125E-07
0.273590087890625, -1.80450439453125E-07
0.274658203125, -1.7681884765625E-07
0.275726318359375, -1.80450439453125E-07
0.27679443359375, -1.756591796875E-07
0.277862548828125, -1.78131103515625E-07
0.2789306640625, -1.7315673828125E-07
0.279998779296875, -1.77734375E-07
0.28106689453125, -1.7230224609375E-07
0.282135009765625, -1.74591064453125E-07
0.283203125, -1.70806884765625E-07
0.284271240234375, -1.7352294921875E-07
0.28533935546875, -1.693115234375E-07
0.286407470703125, -1.70379638671875E-07
0.2874755859375, -1.68670654296875E-07
0.288543701171875, -1.685791015625E-07
0.28961181640625, -1.66900634765625E-07
0.290679931640625, -1.65252685546875E-07
0.291748046875, -1.66351318359375E-07
0.292816162109375, -1.6375732421875E-07
0.29388427734375, -1.6455078125E-07
0.294952392578125, -1.6046142578125E-07
0.2960205078125, -1.640625E-07
0.297088623046875, -1.591796875E-07
0.29815673828125, -1.61468505859375E-07
0.299224853515625, -1.5631103515625E-07
0.30029296875, -1.6015625E-07
0.301361083984375, -1.549072265625E-07
0.30242919921875, -1.56707763671875E-07
0.303497314453125, -1.53106689453125E-07
0.3045654296875, -1.55059814453125E-07
0.305633544921875, -1.514892578125E-07
0.30670166015625, -1.51123046875E-07
0.307769775390625, -1.49932861328125E-07
0.308837890625, -1.4935302734375E-07
0.309906005859375, -1.47918701171875E-07
0.31097412109375, -1.45599365234375E-07
0.312042236328125, -1.47125244140625E-07
0.3131103515625, -1.43341064453125E-07
0.314178466796875, -1.4404296875E-07
0.31524658203125, -1.39617919921875E-07
0.316314697265625, -1.42852783203125E-07
0.3173828125, -1.37298583984375E-07
0.318450927734375, -1.38824462890625E-07
0.31951904296875, -1.34033203125E-07
0.320587158203125, -1.3665771484375E-07
0.3216552734375, -1.31927490234375E-07
0.322723388671875, -1.32354736328125E-07
0.32379150390625, -1.29058837890625E-07
0.324859619140625, -1.2957763671875E-07
0.325927734375, -1.26068115234375E-07
0.326995849609375, -1.25E-07
0.32806396484375, -1.2371826171875E-07
0.329132080078125, -1.2188720703125E-07
0.3302001953125, -1.199951171875E-07
0.331268310546875, -1.1639404296875E-07
0.33233642578125, -1.17340087890625E-07
0.333404541015625, -1.13250732421875E-07
0.33447265625, -1.1279296875E-07
0.335540771484375, -1.0784912109375E-07
0.33660888671875, -1.0955810546875E-07
0.337677001953125, -1.0418701171875E-07
0.3387451171875, -1.0394287109375E-07
0.339813232421875, -9.9029541015625E-08
0.34088134765625, -9.9822998046875E-08
0.341949462890625, -9.4482421875E-08
0.343017578125, -9.3475341796875E-08
0.344085693359375, -8.9447021484375E-08
0.34515380859375, -8.8592529296875E-08
0.346221923828125, -8.3953857421875E-08
0.3472900390625, -8.111572265625E-08
0.348358154296875, -7.8887939453125E-08
0.34942626953125, -7.5958251953125E-08
0.350494384765625, -7.23876953125E-08
0.3515625, -6.8023681640625E-08
0.352630615234375, -6.65283203125E-08
0.35369873046875, -6.1279296875E-08
0.354766845703125, -5.8746337890625E-08
0.3558349609375, -5.28564453125E-08
0.356903076171875, -5.1788330078125E-08
0.35797119140625, -4.5050048828125E-08
0.359039306640625, -4.25262451171875E-08
0.360107421875, -3.59527587890625E-08
0.361175537109375, -3.42864990234375E-08
0.36224365234375, -2.7032470703125E-08
0.363311767578125, -2.3785400390625E-08
0.3643798828125, -1.7431640625E-08
0.365447998046875, -1.36749267578125E-08
0.36651611328125, -6.8511962890625E-09
0.367584228515625, -1.531982421875E-09
0.36865234375, 3.52783203125E-09
0.369720458984375, 9.4818115234375E-09
0.37078857421875, 1.57196044921875E-08
0.371856689453125, 2.29736328125E-08
0.3729248046875, 2.818603515625E-08
0.373992919921875, 3.6199951171875E-08
0.37506103515625, 4.1925048828125E-08
0.376129150390625, 5.072021484375E-08
0.377197265625, 5.560302734375E-08
0.378265380859375, 6.5460205078125E-08
0.37933349609375, 7.1990966796875E-08
0.380401611328125, 8.1939697265625E-08
0.3814697265625, 8.807373046875E-08
0.382537841796875, 9.9151611328125E-08
0.38360595703125, 1.07025146484375E-07
0.384674072265625, 1.17034912109375E-07
0.3857421875, 1.2506103515625E-07
0.386810302734375, 1.36688232421875E-07
0.38787841796875, 1.4654541015625E-07
0.388946533203125, 1.5618896484375E-07
0.3900146484375, 1.6656494140625E-07
0.391082763671875, 1.785888671875E-07
0.39215087890625, 1.91009521484375E-07
0.393218994140625, 2.01568603515625E-07
0.394287109375, 2.14996337890625E-07
0.395355224609375, 2.2674560546875E-07
0.39642333984375, 2.41058349609375E-07
0.397491455078125, 2.52288818359375E-07
0.3985595703125, 2.6800537109375E-07
0.399627685546875, 2.80487060546875E-07
0.40069580078125, 2.96783447265625E-07
0.401763916015625, 3.0914306640625E-07
0.40283203125, 3.2666015625E-07
0.403900146484375, 3.4130859375E-07
0.40496826171875, 3.58428955078125E-07
0.406036376953125, 3.7371826171875E-07
0.4071044921875, 3.922119140625E-07
0.408172607421875, 4.085693359375E-07
0.40924072265625, 4.26666259765625E-07
0.410308837890625, 4.44915771484375E-07
0.411376953125, 4.64019775390625E-07
0.412445068359375, 4.8321533203125E-07
0.41351318359375, 5.01922607421875E-07
0.414581298828125, 5.22918701171875E-07
0.4156494140625, 5.42877197265625E-07
0.416717529296875, 5.65338134765625E-07
0.41778564453125, 5.8526611328125E-07
0.418853759765625, 6.090087890625E-07
0.419921875, 6.28662109375E-07
0.420989990234375, 6.5399169921875E-07
0.42205810546875, 6.7596435546875E-07
0.423126220703125, 7.01904296875E-07
0.4241943359375, 7.2479248046875E-07
0.425262451171875, 7.513427734375E-07
0.42633056640625, 7.75146484375E-07
0.427398681640625, 8.013916015625E-07
0.428466796875, 8.2733154296875E-07
0.429534912109375, 8.5479736328125E-07
0.43060302734375, 8.8226318359375E-07
0.431671142578125, 9.1064453125E-07
0.4327392578125, 9.393310546875E-07
0.433807373046875, 9.68017578125E-07
0.43487548828125, 9.979248046875E-07
0.435943603515625, 1.02752685546875E-06
0.43701171875, 1.05865478515625E-06
0.438079833984375, 1.08917236328125E-06
0.43914794921875, 1.12213134765625E-06
0.440216064453125, 1.1529541015625E-06
0.4412841796875, 1.18743896484375E-06
0.442352294921875, 1.219482421875E-06
0.44342041015625, 1.25457763671875E-06
0.444488525390625, 1.287841796875E-06
0.445556640625, 1.3238525390625E-06
0.446624755859375, 1.358642578125E-06
0.44769287109375, 1.3946533203125E-06
0.448760986328125, 1.4306640625E-06
0.4498291015625, 1.46820068359375E-06
0.450897216796875, 1.50482177734375E-06
0.45196533203125, 1.54327392578125E-06
0.453033447265625, 1.58172607421875E-06
0.4541015625, 1.6204833984375E-06
0.455169677734375, 1.65924072265625E-06
0.45623779296875, 1.6998291015625E-06
0.457305908203125, 1.74041748046875E-06
0.4583740234375, 1.7816162109375E-06
0.459442138671875, 1.82220458984375E-06
0.46051025390625, 1.865234375E-06
0.461578369140625, 1.907958984375E-06
0.462646484375, 1.95098876953125E-06
0.463714599609375, 1.99554443359375E-06
0.46478271484375, 2.037353515625E-06
0.465850830078125, 2.0831298828125E-06
0.4669189453125, 2.12493896484375E-06
0.467987060546875, 2.17132568359375E-06
0.46905517578125, 2.2174072265625E-06
0.470123291015625, 2.265625E-06
0.47119140625, 2.30987548828125E-06
0.472259521484375, 2.35809326171875E-06
0.47332763671875, 2.40509033203125E-06
0.474395751953125, 2.45452880859375E-06
0.4754638671875, 2.50152587890625E-06
0.476531982421875, 2.5518798828125E-06
0.47760009765625, 2.60040283203125E-06
0.478668212890625, 2.6513671875E-06
0.479736328125, 2.7001953125E-06
0.480804443359375, 2.75146484375E-06
0.48187255859375, 2.802734375E-06
0.482940673828125, 2.8546142578125E-06
0.4840087890625, 2.906494140625E-06
0.485076904296875, 2.9583740234375E-06
0.48614501953125, 3.0126953125E-06
0.487213134765625, 3.0633544921875E-06
0.48828125, 3.11920166015625E-06
0.489349365234375, 3.17047119140625E-06
0.49041748046875, 3.22906494140625E-06
0.491485595703125, 3.2794189453125E-06
0.4925537109375, 3.33740234375E-06
0.493621826171875, 3.38958740234375E-06
0.49468994140625, 3.44970703125E-06
0.495758056640625, 3.50189208984375E-06
0.496826171875, 3.560791015625E-06
0.497894287109375, 3.6163330078125E-06
0.49896240234375, 3.6749267578125E-06
0.500030517578125, 3.73077392578125E-06
##END=$$ End of the data block
