##TITLE=Spectrum
##JCAMP-DX=5.00 $$ chemotion-converter-app (1.7.0)
##DATA TYPE=THERMOGRAVIMETRIC ANALYSIS
##DATA CLASS=XYPOINTS
##ORIGIN=
##OWNER=
##XUNITS=DEGREES CELSIUS
##YUNITS=Weight %
##FIRSTX=29.28
##LASTX=29.64
##MINX=29.14
##MAXX=29.64
##MINY=100.0
##MAXY=100.0
##NPOINTS=1800
##FIRSTY=100.0
##XUNITS=DEGREES CELSIUS
##YUNITS=Weight %
##XYPOINTS=(XY..XY)
29.28, 100.0
29.28, 100.0
29.28, 100.0
29.28, 100.0
29.28, 100.0
29.28, 100.0
29.28, 100.0
29.28, 100.0
29.28, 100.0
29.28, 100.0
29.28, 100.0
29.28, 100.0
29.28, 100.0
29.28, 100.0
29.28, 100.0
29.28, 100.0
29.28, 100.0
29.28, 100.0
29.28, 100.0
29.28, 100.0
29.28, 100.0
29.28, 100.0
29.28, 100.0
29.28, 100.0
29.27, 100.0
29.27, 100.0
29.27, 100.0
29.27, 100.0
29.27, 100.0
29.27, 100.0
29.27, 100.0
29.27, 100.0
29.27, 100.0
29.27, 100.0
29.27, 100.0
29.27, 100.0
29.27, 100.0
29.27, 100.0
29.27, 100.0
29.27, 100.0
29.27, 100.0
29.27, 100.0
29.27, 100.0
29.27, 100.0
29.27, 100.0
29.27, 100.0
29.27, 100.0
29.27, 100.0
29.26, 100.0
29.26, 100.0
29.26, 100.0
29.26, 100.0
29.26, 100.0
29.26, 100.0
29.26, 100.0
29.26, 100.0
29.26, 100.0
29.26, 100.0
29.26, 100.0
29.26, 100.0
29.26, 100.0
29.26, 100.0
29.26, 100.0
29.26, 100.0
29.26, 100.0
29.26, 100.0
29.26, 100.0
29.26, 100.0
29.26, 100.0
29.26, 100.0
29.26, 100.0
29.25, 100.0
29.25, 100.0
29.25, 100.0
29.25, 100.0
29.25, 100.0
29.25, 100.0
29.25, 100.0
29.25, 100.0
29.25, 100.0
29.25, 100.0
29.25, 100.0
29.25, 100.0
29.25, 100.0
29.25, 100.0
29.25, 100.0
29.25, 100.0
29.25, 100.0
29.25, 100.0
29.25, 100.0
29.25, 100.0
29.25, 100.0
29.25, 100.0
29.25, 100.0
29.24, 100.0
29.24, 100.0
29.24, 100.0
29.24, 100.0
29.24, 100.0
29.24, 100.0
29.24, 100.0
29.24, 100.0
29.24, 100.0
29.24, 100.0
29.24, 100.0
29.24, 100.0
29.24, 100.0
29.24, 100.0
29.24, 100.0
29.24, 100.0
29.24, 100.0
29.24, 100.0
29.24, 100.0
29.24, 100.0
29.24, 100.0
29.24, 100.0
29.24, 100.0
29.24, 100.0
29.23, 100.0
29.23, 100.0
29.23, 100.0
29.23, 100.0
29.23, 100.0
29.23, 100.0
29.23, 100.0
29.23, 100.0
29.23, 100.0
29.23, 100.0
29.23, 100.0
29.23, 100.0
29.23, 100.0
29.23, 100.0
29.23, 100.0
29.23, 100.0
29.23, 100.0
29.23, 100.0
29.23, 100.0
29.23, 100.0
29.23, 100.0
29.23, 100.0
29.23, 100.0
29.23, 100.0
29.22, 100.0
29.22, 100.0
29.22, 100.0
29.22, 100.0
29.22, 100.0
29.22, 100.0
29.22, 100.0
29.22, 100.0
29.22, 100.0
29.22, 100.0
29.22, 100.0
29.22, 100.0
29.22, 100.0
29.22, 100.0
29.22, 100.0
29.22, 100.0
29.22, 100.0
29.22, 100.0
29.22, 100.0
29.22, 100.0
29.22, 100.0
29.22, 100.0
29.22, 100.0
29.22, 100.0
29.21, 100.0
29.21, 100.0
29.21, 100.0
29.21, 100.0
29.21, 100.0
29.21, 100.0
29.21, 100.0
29.21, 100.0
29.21, 100.0
29.21, 100.0
29.21, 100.0
29.21, 100.0
29.21, 100.0
29.21, 100.0
29.21, 100.0
29.21, 100.0
29.21, 100.0
29.21, 100.0
29.21, 100.0
29.21, 100.0
29.21, 100.0
29.21, 100.0
29.21, 100.0
29.21, 100.0
29.21, 100.0
29.2, 100.0
29.2, 100.0
29.2, 100.0
29.2, 100.0
29.2, 100.0
29.2, 100.0
29.2, 100.0
29.2, 100.0
29.2, 100.0
29.2, 100.0
29.2, 100.0
29.2, 100.0
29.2, 100.0
29.2, 100.0
29.2, 100.0
29.2, 100.0
29.2, 100.0
29.2, 100.0
29.2, 100.0
29.2, 100.0
29.2, 100.0
29.2, 100.0
29.2, 100.0
29.2, 100.0
29.2, 100.0
29.19, 100.0
29.19, 100.0
29.19, 100.0
29.19, 100.0
29.19, 100.0
29.19, 100.0
29.19, 100.0
29.19, 100.0
29.19, 100.0
29.19, 100.0
29.19, 100.0
29.19, 100.0
29.19, 100.0
29.19, 100.0
29.19, 100.0
29.19, 100.0
29.19, 100.0
29.19, 100.0
29.19, 100.0
29.19, 100.0
29.19, 100.0
29.19, 100.0
29.19, 100.0
29.19, 100.0
29.19, 100.0
29.18, 100.0
29.18, 100.0
29.18, 100.0
29.18, 100.0
29.18, 100.0
29.18, 100.0
29.18, 100.0
29.18, 100.0
29.18, 100.0
29.18, 100.0
29.18, 100.0
29.18, 100.0
29.18, 100.0
29.18, 100.0
29.18, 100.0
29.18, 100.0
29.18, 100.0
29.18, 100.0
29.18, 100.0
29.18, 100.0
29.18, 100.0
29.18, 100.0
29.18, 100.0
29.18, 100.0
29.18, 100.0
29.18, 100.0
29.17, 100.0
29.17, 100.0
29.17, 100.0
29.17, 100.0
29.17, 100.0
29.17, 100.0
29.17, 100.0
29.17, 100.0
29.17, 100.0
29.17, 100.0
29.17, 100.0
29.17, 100.0
29.17, 100.0
29.17, 100.0
29.17, 100.0
29.17, 100.0
29.17, 100.0
29.17, 100.0
29.17, 100.0
29.17, 100.0
29.17, 100.0
29.17, 100.0
29.17, 100.0
29.17, 100.0
29.17, 100.0
29.17, 100.0
29.17, 100.0
29.16, 100.0
29.16, 100.0
29.16, 100.0
29.16, 100.0
29.16, 100.0
29.16, 100.0
29.16, 100.0
29.16, 100.0
29.16, 100.0
29.16, 100.0
29.16, 100.0
29.16, 100.0
29.16, 100.0
29.16, 100.0
29.16, 100.0
29.16, 100.0
29.16, 100.0
29.16, 100.0
29.16, 100.0
29.16, 100.0
29.16, 100.0
29.16, 100.0
29.16, 100.0
29.16, 100.0
29.16, 100.0
29.16, 100.0
29.16, 100.0
29.16, 100.0
29.16, 100.0
29.16, 100.0
29.16, 100.0
29.16, 100.0
29.16, 100.0
29.16, 100.0
29.16, 100.0
29.16, 100.0
29.15, 100.0
29.15, 100.0
29.15, 100.0
29.15, 100.0
29.15, 100.0
29.15, 100.0
29.15, 100.0
29.15, 100.0
29.15, 100.0
29.15, 100.0
29.15, 100.0
29.15, 100.0
29.15, 100.0
29.15, 100.0
29.15, 100.0
29.15, 100.0
29.15, 100.0
29.15, 100.0
29.15, 100.0
29.15, 100.0
29.15, 100.0
29.15, 100.0
29.15, 100.0
29.15, 100.0
29.15, 100.0
29.15, 100.0
29.15, 100.0
29.15, 100.0
29.15, 100.0
29.15, 100.0
29.15, 100.0
29.15, 100.0
29.15, 100.0
29.15, 100.0
29.15, 100.0
29.15, 100.0
29.15, 100.0
29.15, 100.0
29.15, 100.0
29.15, 100.0
29.15, 100.0
29.15, 100.0
29.15, 100.0
29.15, 100.0
29.15, 100.0
29.15, 100.0
29.15, 100.0
29.15, 100.0
29.15, 100.0
29.15, 100.0
29.15, 100.0
29.15, 100.0
29.15, 100.0
29.15, 100.0
29.14, 100.0
29.14, 100.0
29.14, 100.0
29.14, 100.0
29.14, 100.0
29.14, 100.0
29.14, 100.0
29.14, 100.0
29.14, 100.0
29.14, 100.0
29.14, 100.0
29.14, 100.0
29.14, 100.0
29.14, 100.0
29.14, 100.0
29.14, 100.0
29.14, 100.0
29.14, 100.0
29.14, 100.0
29.14, 100.0
29.14, 100.0
29.14, 100.0
29.14, 100.0
29.14, 100.0
29.14, 100.0
29.14, 100.0
29.14, 100.0
29.14, 100.0
29.14, 100.0
29.14, 100.0
29.14, 100.0
29.14, 100.0
29.14, 100.0
29.14, 100.0
29.14, 100.0
29.14, 100.0
29.14, 100.0
29.14, 100.0
29.14, 100.0
29.14, 100.0
29.14, 100.0
29.14, 100.0
29.14, 100.0
29.14, 100.0
29.14, 100.0
29.14, 100.0
29.14, 100.0
29.14, 100.0
29.14, 100.0
29.14, 100.0
29.14, 100.0
29.14, 100.0
29.14, 100.0
29.14, 100.0
29.14, 100.0
29.14, 100.0
29.14, 100.0
29.14, 100.0
29.14, 100.0
29.14, 100.0
29.14, 100.0
29.14, 100.0
29.14, 100.0
29.14, 100.0
29.14, 100.0
29.14, 100.0
29.14, 100.0
29.14, 100.0
29.14, 100.0
29.14, 100.0
29.14, 100.0
29.14, 100.0
29.14, 100.0
29.14, 100.0
29.14, 100.0
29.14, 100.0
29.14, 100.0
29.14, 100.0
29.14, 100.0
29.14, 100.0
29.14, 100.0
29.14, 100.0
29.14, 100.0
29.14, 100.0
29.14, 100.0
29.14, 100.0
29.14, 100.0
29.14, 100.0
29.14, 100.0
29.14, 100.0
29.14, 100.0
29.14, 100.0
29.14, 100.0
29.14, 100.0
29.14, 100.0
29.14, 100.0
29.14, 100.0
29.14, 100.0
29.14, 100.0
29.14, 100.0
29.14, 100.0
29.14, 100.0
29.14, 100.0
29.14, 100.0
29.14, 100.0
29.14, 100.0
29.14, 100.0
29.14, 100.0
29.14, 100.0
29.14, 100.0
29.14, 100.0
29.14, 100.0
29.14, 100.0
29.14, 100.0
29.14, 100.0
29.14, 100.0
29.14, 100.0
29.14, 100.0
29.14, 100.0
29.14, 100.0
29.14, 100.0
29.14, 100.0
29.14, 100.0
29.14, 100.0
29.14, 100.0
29.14, 100.0
29.14, 100.0
29.14, 100.0
29.14, 100.0
29.14, 100.0
29.14, 100.0
29.14, 100.0
29.14, 100.0
29.14, 100.0
29.14, 100.0
29.14, 100.0
29.14, 100.0
29.14, 100.0
29.14, 100.0
29.14, 100.0
29.14, 100.0
29.14, 100.0
29.14, 100.0
29.14, 100.0
29.14, 100.0
29.14, 100.0
29.14, 100.0
29.14, 100.0
29.14, 100.0
29.14, 100.0
29.14, 100.0
29.14, 100.0
29.14, 100.0
29.14, 100.0
29.14, 100.0
29.14, 100.0
29.14, 100.0
29.14, 100.0
29.14, 100.0
29.14, 100.0
29.14, 100.0
29.14, 100.0
29.14, 100.0
29.14, 100.0
29.14, 100.0
29.14, 100.0
29.14, 100.0
29.14, 100.0
29.14, 100.0
29.14, 100.0
29.14, 100.0
29.14, 100.0
29.14, 100.0
29.14, 100.0
29.14, 100.0
29.14, 100.0
29.14, 100.0
29.14, 100.0
29.14, 100.0
29.14, 100.0
29.14, 100.0
29.14, 100.0
29.14, 100.0
29.14, 100.0
29.14, 100.0
29.14, 100.0
29.14, 100.0
29.14, 100.0
29.14, 100.0
29.14, 100.0
29.14, 100.0
29.14, 100.0
29.14, 100.0
29.14, 100.0
29.14, 100.0
29.14, 100.0
29.14, 100.0
29.14, 100.0
29.15, 100.0
29.15, 100.0
29.15, 100.0
29.15, 100.0
29.15, 100.0
29.15, 100.0
29.15, 100.0
29.15, 100.0
29.15, 100.0
29.15, 100.0
29.15, 100.0
29.15, 100.0
29.15, 100.0
29.15, 100.0
29.15, 100.0
29.15, 100.0
29.15, 100.0
29.15, 100.0
29.15, 100.0
29.15, 100.0
29.15, 100.0
29.15, 100.0
29.15, 100.0
29.15, 100.0
29.15, 100.0
29.15, 100.0
29.15, 100.0
29.15, 100.0
29.15, 100.0
29.15, 100.0
29.15, 100.0
29.15, 100.0
29.15, 100.0
29.15, 100.0
29.15, 100.0
29.15, 100.0
29.15, 100.0
29.15, 100.0
29.15, 100.0
29.15, 100.0
29.15, 100.0
29.15, 100.0
29.15, 100.0
29.15, 100.0
29.15, 100.0
29.15, 100.0
29.15, 100.0
29.15, 100.0
29.15, 100.0
29.15, 100.0
29.15, 100.0
29.15, 100.0
29.15, 100.0
29.15, 100.0
29.15, 100.0
29.15, 100.0
29.15, 100.0
29.15, 100.0
29.15, 100.0
29.15, 100.0
29.15, 100.0
29.15, 100.0
29.15, 100.0
29.15, 100.0
29.15, 100.0
29.15, 100.0
29.15, 100.0
29.15, 100.0
29.15, 100.0
29.15, 100.0
29.15, 100.0
29.15, 100.0
29.16, 100.0
29.16, 100.0
29.16, 100.0
29.16, 100.0
29.16, 100.0
29.16, 100.0
29.16, 100.0
29.16, 100.0
29.16, 100.0
29.16, 100.0
29.16, 100.0
29.16, 100.0
29.16, 100.0
29.16, 100.0
29.16, 100.0
29.16, 100.0
29.16, 100.0
29.16, 100.0
29.16, 100.0
29.16, 100.0
29.16, 100.0
29.16, 100.0
29.16, 100.0
29.16, 100.0
29.16, 100.0
29.16, 100.0
29.16, 100.0
29.16, 100.0
29.16, 100.0
29.16, 100.0
29.16, 100.0
29.16, 100.0
29.16, 100.0
29.16, 100.0
29.16, 100.0
29.16, 100.0
29.16, 100.0
29.16, 100.0
29.16, 100.0
29.16, 100.0
29.16, 100.0
29.16, 100.0
29.16, 100.0
29.16, 100.0
29.16, 100.0
29.16, 100.0
29.16, 100.0
29.16, 100.0
29.16, 100.0
29.16, 100.0
29.16, 100.0
29.16, 100.0
29.16, 100.0
29.16, 100.0
29.16, 100.0
29.17, 100.0
29.17, 100.0
29.17, 100.0
29.17, 100.0
29.17, 100.0
29.17, 100.0
29.17, 100.0
29.17, 100.0
29.17, 100.0
29.17, 100.0
29.17, 100.0
29.17, 100.0
29.17, 100.0
29.17, 100.0
29.17, 100.0
29.17, 100.0
29.17, 100.0
29.17, 100.0
29.17, 100.0
29.17, 100.0
29.17, 100.0
29.17, 100.0
29.17, 100.0
29.17, 100.0
29.17, 100.0
29.17, 100.0
29.17, 100.0
29.17, 100.0
29.17, 100.0
29.17, 100.0
29.17, 100.0
29.17, 100.0
29.17, 100.0
29.17, 100.0
29.17, 100.0
29.17, 100.0
29.17, 100.0
29.17, 100.0
29.17, 100.0
29.17, 100.0
29.17, 100.0
29.17, 100.0
29.17, 100.0
29.17, 100.0
29.17, 100.0
29.17, 100.0
29.17, 100.0
29.17, 100.0
29.18, 100.0
29.18, 100.0
29.18, 100.0
29.18, 100.0
29.18, 100.0
29.18, 100.0
29.18, 100.0
29.18, 100.0
29.18, 100.0
29.18, 100.0
29.18, 100.0
29.18, 100.0
29.18, 100.0
29.18, 100.0
29.18, 100.0
29.18, 100.0
29.18, 100.0
29.18, 100.0
29.18, 100.0
29.18, 100.0
29.18, 100.0
29.18, 100.0
29.18, 100.0
29.18, 100.0
29.18, 100.0
29.18, 100.0
29.18, 100.0
29.18, 100.0
29.18, 100.0
29.18, 100.0
29.18, 100.0
29.18, 100.0
29.18, 100.0
29.18, 100.0
29.18, 100.0
29.18, 100.0
29.18, 100.0
29.18, 100.0
29.18, 100.0
29.18, 100.0
29.18, 100.0
29.18, 100.0
29.18, 100.0
29.19, 100.0
29.19, 100.0
29.19, 100.0
29.19, 100.0
29.19, 100.0
29.19, 100.0
29.19, 100.0
29.19, 100.0
29.19, 100.0
29.19, 100.0
29.19, 100.0
29.19, 100.0
29.19, 100.0
29.19, 100.0
29.19, 100.0
29.19, 100.0
29.19, 100.0
29.19, 100.0
29.19, 100.0
29.19, 100.0
29.19, 100.0
29.19, 100.0
29.19, 100.0
29.19, 100.0
29.19, 100.0
29.19, 100.0
29.19, 100.0
29.19, 100.0
29.19, 100.0
29.19, 100.0
29.19, 100.0
29.19, 100.0
29.19, 100.0
29.19, 100.0
29.19, 100.0
29.19, 100.0
29.19, 100.0
29.19, 100.0
29.2, 100.0
29.2, 100.0
29.2, 100.0
29.2, 100.0
29.2, 100.0
29.2, 100.0
29.2, 100.0
29.2, 100.0
29.2, 100.0
29.2, 100.0
29.2, 100.0
29.2, 100.0
29.2, 100.0
29.2, 100.0
29.2, 100.0
29.2, 100.0
29.2, 100.0
29.2, 100.0
29.2, 100.0
29.2, 100.0
29.2, 100.0
29.2, 100.0
29.2, 100.0
29.2, 100.0
29.2, 100.0
29.2, 100.0
29.2, 100.0
29.2, 100.0
29.2, 100.0
29.2, 100.0
29.2, 100.0
29.2, 100.0
29.2, 100.0
29.2, 100.0
29.2, 100.0
29.21, 100.0
29.21, 100.0
29.21, 100.0
29.21, 100.0
29.21, 100.0
29.21, 100.0
29.21, 100.0
29.21, 100.0
29.21, 100.0
29.21, 100.0
29.21, 100.0
29.21, 100.0
29.21, 100.0
29.21, 100.0
29.21, 100.0
29.21, 100.0
29.21, 100.0
29.21, 100.0
29.21, 100.0
29.21, 100.0
29.21, 100.0
29.21, 100.0
29.21, 100.0
29.21, 100.0
29.21, 100.0
29.21, 100.0
29.21, 100.0
29.21, 100.0
29.21, 100.0
29.21, 100.0
29.21, 100.0
29.21, 100.0
29.21, 100.0
29.22, 100.0
29.22, 100.0
29.22, 100.0
29.22, 100.0
29.22, 100.0
29.22, 100.0
29.22, 100.0
29.22, 100.0
29.22, 100.0
29.22, 100.0
29.22, 100.0
29.22, 100.0
29.22, 100.0
29.22, 100.0
29.22, 100.0
29.22, 100.0
29.22, 100.0
29.22, 100.0
29.22, 100.0
29.22, 100.0
29.22, 100.0
29.22, 100.0
29.22, 100.0
29.22, 100.0
29.22, 100.0
29.22, 100.0
29.22, 100.0
29.22, 100.0
29.22, 100.0
29.22, 100.0
29.22, 100.0
29.23, 100.0
29.23, 100.0
29.23, 100.0
29.23, 100.0
29.23, 100.0
29.23, 100.0
29.23, 100.0
29.23, 100.0
29.23, 100.0
29.23, 100.0
29.23, 100.0
29.23, 100.0
29.23, 100.0
29.23, 100.0
29.23, 100.0
29.23, 100.0
29.23, 100.0
29.23, 100.0
29.23, 100.0
29.23, 100.0
29.23, 100.0
29.23, 100.0
29.23, 100.0
29.23, 100.0
29.23, 100.0
29.23, 100.0
29.23, 100.0
29.23, 100.0
29.23, 100.0
29.24, 100.0
29.24, 100.0
29.24, 100.0
29.24, 100.0
29.24, 100.0
29.24, 100.0
29.24, 100.0
29.24, 100.0
29.24, 100.0
29.24, 100.0
29.24, 100.0
29.24, 100.0
29.24, 100.0
29.24, 100.0
29.24, 100.0
29.24, 100.0
29.24, 100.0
29.24, 100.0
29.24, 100.0
29.24, 100.0
29.24, 100.0
29.24, 100.0
29.24, 100.0
29.24, 100.0
29.24, 100.0
29.24, 100.0
29.24, 100.0
29.24, 100.0
29.24, 100.0
29.25, 100.0
29.25, 100.0
29.25, 100.0
29.25, 100.0
29.25, 100.0
29.25, 100.0
29.25, 100.0
29.25, 100.0
29.25, 100.0
29.25, 100.0
29.25, 100.0
29.25, 100.0
29.25, 100.0
29.25, 100.0
29.25, 100.0
29.25, 100.0
29.25, 100.0
29.25, 100.0
29.25, 100.0
29.25, 100.0
29.25, 100.0
29.25, 100.0
29.25, 100.0
29.25, 100.0
29.25, 100.0
29.25, 100.0
29.25, 100.0
29.26, 100.0
29.26, 100.0
29.26, 100.0
29.26, 100.0
29.26, 100.0
29.26, 100.0
29.26, 100.0
29.26, 100.0
29.26, 100.0
29.26, 100.0
29.26, 100.0
29.26, 100.0
29.26, 100.0
29.26, 100.0
29.26, 100.0
29.26, 100.0
29.26, 100.0
29.26, 100.0
29.26, 100.0
29.26, 100.0
29.26, 100.0
29.26, 100.0
29.26, 100.0
29.26, 100.0
29.26, 100.0
29.27, 100.0
29.27, 100.0
29.27, 100.0
29.27, 100.0
29.27, 100.0
29.27, 100.0
29.27, 100.0
29.27, 100.0
29.27, 100.0
29.27, 100.0
29.27, 100.0
29.27, 100.0
29.27, 100.0
29.27, 100.0
29.27, 100.0
29.27, 100.0
29.27, 100.0
29.27, 100.0
29.27, 100.0
29.27, 100.0
29.27, 100.0
29.27, 100.0
29.27, 100.0
29.27, 100.0
29.28, 100.0
29.28, 100.0
29.28, 100.0
29.28, 100.0
29.28, 100.0
29.28, 100.0
29.28, 100.0
29.28, 100.0
29.28, 100.0
29.28, 100.0
29.28, 100.0
29.28, 100.0
29.28, 100.0
29.28, 100.0
29.28, 100.0
29.28, 100.0
29.28, 100.0
29.28, 100.0
29.28, 100.0
29.28, 100.0
29.28, 100.0
29.28, 100.0
29.28, 100.0
29.29, 100.0
29.29, 100.0
29.29, 100.0
29.29, 100.0
29.29, 100.0
29.29, 100.0
29.29, 100.0
29.29, 100.0
29.29, 100.0
29.29, 100.0
29.29, 100.0
29.29, 100.0
29.29, 100.0
29.29, 100.0
29.29, 100.0
29.29, 100.0
29.29, 100.0
29.29, 100.0
29.29, 100.0
29.29, 100.0
29.29, 100.0
29.29, 100.0
29.3, 100.0
29.3, 100.0
29.3, 100.0
29.3, 100.0
29.3, 100.0
29.3, 100.0
29.3, 100.0
29.3, 100.0
29.3, 100.0
29.3, 100.0
29.3, 100.0
29.3, 100.0
29.3, 100.0
29.3, 100.0
29.3, 100.0
29.3, 100.0
29.3, 100.0
29.3, 100.0
29.3, 100.0
29.3, 100.0
29.3, 100.0
29.3, 100.0
29.31, 100.0
29.31, 100.0
29.31, 100.0
29.31, 100.0
29.31, 100.0
29.31, 100.0
29.31, 100.0
29.31, 100.0
29.31, 100.0
29.31, 100.0
29.31, 100.0
29.31, 100.0
29.31, 100.0
29.31, 100.0
29.31, 100.0
29.31, 100.0
29.31, 100.0
29.31, 100.0
29.31, 100.0
29.31, 100.0
29.31, 100.0
29.32, 100.0
29.32, 100.0
29.32, 100.0
29.32, 100.0
29.32, 100.0
29.32, 100.0
29.32, 100.0
29.32, 100.0
29.32, 100.0
29.32, 100.0
29.32, 100.0
29.32, 100.0
29.32, 100.0
29.32, 100.0
29.32, 100.0
29.32, 100.0
29.32, 100.0
29.32, 100.0
29.32, 100.0
29.32, 100.0
29.32, 100.0
29.33, 100.0
29.33, 100.0
29.33, 100.0
29.33, 100.0
29.33, 100.0
29.33, 100.0
29.33, 100.0
29.33, 100.0
29.33, 100.0
29.33, 100.0
29.33, 100.0
29.33, 100.0
29.33, 100.0
29.33, 100.0
29.33, 100.0
29.33, 100.0
29.33, 100.0
29.33, 100.0
29.33, 100.0
29.33, 100.0
29.34, 100.0
29.34, 100.0
29.34, 100.0
29.34, 100.0
29.34, 100.0
29.34, 100.0
29.34, 100.0
29.34, 100.0
29.34, 100.0
29.34, 100.0
29.34, 100.0
29.34, 100.0
29.34, 100.0
29.34, 100.0
29.34, 100.0
29.34, 100.0
29.34, 100.0
29.34, 100.0
29.34, 100.0
29.34, 100.0
29.35, 100.0
29.35, 100.0
29.35, 100.0
29.35, 100.0
29.35, 100.0
29.35, 100.0
29.35, 100.0
29.35, 100.0
29.35, 100.0
29.35, 100.0
29.35, 100.0
29.35, 100.0
29.35, 100.0
29.35, 100.0
29.35, 100.0
29.35, 100.0
29.35, 100.0
29.35, 100.0
29.35, 100.0
29.36, 100.0
29.36, 100.0
29.36, 100.0
29.36, 100.0
29.36, 100.0
29.36, 100.0
29.36, 100.0
29.36, 100.0
29.36, 100.0
29.36, 100.0
29.36, 100.0
29.36, 100.0
29.36, 100.0
29.36, 100.0
29.36, 100.0
29.36, 100.0
29.36, 100.0
29.36, 100.0
29.36, 100.0
29.37, 100.0
29.37, 100.0
29.37, 100.0
29.37, 100.0
29.37, 100.0
29.37, 100.0
29.37, 100.0
29.37, 100.0
29.37, 100.0
29.37, 100.0
29.37, 100.0
29.37, 100.0
29.37, 100.0
29.37, 100.0
29.37, 100.0
29.37, 100.0
29.37, 100.0
29.37, 100.0
29.37, 100.0
29.38, 100.0
29.38, 100.0
29.38, 100.0
29.38, 100.0
29.38, 100.0
29.38, 100.0
29.38, 100.0
29.38, 100.0
29.38, 100.0
29.38, 100.0
29.38, 100.0
29.38, 100.0
29.38, 100.0
29.38, 100.0
29.38, 100.0
29.38, 100.0
29.38, 100.0
29.38, 100.0
29.39, 100.0
29.39, 100.0
29.39, 100.0
29.39, 100.0
29.39, 100.0
29.39, 100.0
29.39, 100.0
29.39, 100.0
29.39, 100.0
29.39, 100.0
29.39, 100.0
29.39, 100.0
29.39, 100.0
29.39, 100.0
29.39, 100.0
29.39, 100.0
29.39, 100.0
29.39, 100.0
29.39, 100.0
29.4, 100.0
29.4, 100.0
29.4, 100.0
29.4, 100.0
29.4, 100.0
29.4, 100.0
29.4, 100.0
29.4, 100.0
29.4, 100.0
29.4, 100.0
29.4, 100.0
29.4, 100.0
29.4, 100.0
29.4, 100.0
29.4, 100.0
29.4, 100.0
29.4, 100.0
29.4, 100.0
29.4, 100.0
29.41, 100.0
29.41, 100.0
29.41, 100.0
29.41, 100.0
29.41, 100.0
29.41, 100.0
29.41, 100.0
29.41, 100.0
29.41, 100.0
29.41, 100.0
29.41, 100.0
29.41, 100.0
29.41, 100.0
29.41, 100.0
29.41, 100.0
29.41, 100.0
29.41, 100.0
29.41, 100.0
29.42, 100.0
29.42, 100.0
29.42, 100.0
29.42, 100.0
29.42, 100.0
29.42, 100.0
29.42, 100.0
29.42, 100.0
29.42, 100.0
29.42, 100.0
29.42, 100.0
29.42, 100.0
29.42, 100.0
29.42, 100.0
29.42, 100.0
29.42, 100.0
29.42, 100.0
29.42, 100.0
29.42, 100.0
29.43, 100.0
29.43, 100.0
29.43, 100.0
29.43, 100.0
29.43, 100.0
29.43, 100.0
29.43, 100.0
29.43, 100.0
29.43, 100.0
29.43, 100.0
29.43, 100.0
29.43, 100.0
29.43, 100.0
29.43, 100.0
29.43, 100.0
29.43, 100.0
29.43, 100.0
29.43, 100.0
29.43, 100.0
29.44, 100.0
29.44, 100.0
29.44, 100.0
29.44, 100.0
29.44, 100.0
29.44, 100.0
29.44, 100.0
29.44, 100.0
29.44, 100.0
29.44, 100.0
29.44, 100.0
29.44, 100.0
29.44, 100.0
29.44, 100.0
29.44, 100.0
29.44, 100.0
29.44, 100.0
29.44, 100.0
29.45, 100.0
29.45, 100.0
29.45, 100.0
29.45, 100.0
29.45, 100.0
29.45, 100.0
29.45, 100.0
29.45, 100.0
29.45, 100.0
29.45, 100.0
29.45, 100.0
29.45, 100.0
29.45, 100.0
29.45, 100.0
29.45, 100.0
29.45, 100.0
29.45, 100.0
29.46, 100.0
29.46, 100.0
29.46, 100.0
29.46, 100.0
29.46, 100.0
29.46, 100.0
29.46, 100.0
29.46, 100.0
29.46, 100.0
29.46, 100.0
29.46, 100.0
29.46, 100.0
29.46, 100.0
29.46, 100.0
29.46, 100.0
29.46, 100.0
29.46, 100.0
29.46, 100.0
29.47, 100.0
29.47, 100.0
29.47, 100.0
29.47, 100.0
29.47, 100.0
29.47, 100.0
29.47, 100.0
29.47, 100.0
29.47, 100.0
29.47, 100.0
29.47, 100.0
29.47, 100.0
29.47, 100.0
29.47, 100.0
29.47, 100.0
29.47, 100.0
29.47, 100.0
29.47, 100.0
29.48, 100.0
29.48, 100.0
29.48, 100.0
29.48, 100.0
29.48, 100.0
29.48, 100.0
29.48, 100.0
29.48, 100.0
29.48, 100.0
29.48, 100.0
29.48, 100.0
29.48, 100.0
29.48, 100.0
29.48, 100.0
29.48, 100.0
29.48, 100.0
29.48, 100.0
29.49, 100.0
29.49, 100.0
29.49, 100.0
29.49, 100.0
29.49, 100.0
29.49, 100.0
29.49, 100.0
29.49, 100.0
29.49, 100.0
29.49, 100.0
29.49, 100.0
29.49, 100.0
29.49, 100.0
29.49, 100.0
29.49, 100.0
29.49, 100.0
29.49, 100.0
29.49, 100.0
29.5, 100.0
29.5, 100.0
29.5, 100.0
29.5, 100.0
29.5, 100.0
29.5, 100.0
29.5, 100.0
29.5, 100.0
29.5, 100.0
29.5, 100.0
29.5, 100.0
29.5, 100.0
29.5, 100.0
29.5, 100.0
29.5, 100.0
29.5, 100.0
29.5, 100.0
29.5, 100.0
29.51, 100.0
29.51, 100.0
29.51, 100.0
29.51, 100.0
29.51, 100.0
29.51, 100.0
29.51, 100.0
29.51, 100.0
29.51, 100.0
29.51, 100.0
29.51, 100.0
29.51, 100.0
29.51, 100.0
29.51, 100.0
29.51, 100.0
29.51, 100.0
29.51, 100.0
29.51, 100.0
29.52, 100.0
29.52, 100.0
29.52, 100.0
29.52, 100.0
29.52, 100.0
29.52, 100.0
29.52, 100.0
29.52, 100.0
29.52, 100.0
29.52, 100.0
29.52, 100.0
29.52, 100.0
29.52, 100.0
29.52, 100.0
29.52, 100.0
29.52, 100.0
29.52, 100.0
29.52, 100.0
29.53, 100.0
29.53, 100.0
29.53, 100.0
29.53, 100.0
29.53, 100.0
29.53, 100.0
29.53, 100.0
29.53, 100.0
29.53, 100.0
29.53, 100.0
29.53, 100.0
29.53, 100.0
29.53, 100.0
29.53, 100.0
29.53, 100.0
29.53, 100.0
29.53, 100.0
29.53, 100.0
29.54, 100.0
29.54, 100.0
29.54, 100.0
29.54, 100.0
29.54, 100.0
29.54, 100.0
29.54, 100.0
29.54, 100.0
29.54, 100.0
29.54, 100.0
29.54, 100.0
29.54, 100.0
29.54, 100.0
29.54, 100.0
29.54, 100.0
29.54, 100.0
29.54, 100.0
29.54, 100.0
29.54, 100.0
29.55, 100.0
29.55, 100.0
29.55, 100.0
29.55, 100.0
29.55, 100.0
29.55, 100.0
29.55, 100.0
29.55, 100.0
29.55, 100.0
29.55, 100.0
29.55, 100.0
29.55, 100.0
29.55, 100.0
29.55, 100.0
29.55, 100.0
29.55, 100.0
29.55, 100.0
29.55, 100.0
29.55, 100.0
29.56, 100.0
29.56, 100.0
29.56, 100.0
29.56, 100.0
29.56, 100.0
29.56, 100.0
29.56, 100.0
29.56, 100.0
29.56, 100.0
29.56, 100.0
29.56, 100.0
29.56, 100.0
29.56, 100.0
29.56, 100.0
29.56, 100.0
29.56, 100.0
29.56, 100.0
29.56, 100.0
29.56, 100.0
29.56, 100.0
29.57, 100.0
29.57, 100.0
29.57, 100.0
29.57, 100.0
29.57, 100.0
29.57, 100.0
29.57, 100.0
29.57, 100.0
29.57, 100.0
29.57, 100.0
29.57, 100.0
29.57, 100.0
29.57, 100.0
29.57, 100.0
29.57, 100.0
29.57, 100.0
29.57, 100.0
29.57, 100.0
29.57, 100.0
29.57, 100.0
29.58, 100.0
29.58, 100.0
29.58, 100.0
29.58, 100.0
29.58, 100.0
29.58, 100.0
29.58, 100.0
29.58, 100.0
29.58, 100.0
29.58, 100.0
29.58, 100.0
29.58, 100.0
29.58, 100.0
29.58, 100.0
29.58, 100.0
29.58, 100.0
29.58, 100.0
29.58, 100.0
29.58, 100.0
29.58, 100.0
29.59, 100.0
29.59, 100.0
29.59, 100.0
29.59, 100.0
29.59, 100.0
29.59, 100.0
29.59, 100.0
29.59, 100.0
29.59, 100.0
29.59, 100.0
29.59, 100.0
29.59, 100.0
29.59, 100.0
29.59, 100.0
29.59, 100.0
29.59, 100.0
29.59, 100.0
29.59, 100.0
29.59, 100.0
29.59, 100.0
29.59, 100.0
29.6, 100.0
29.6, 100.0
29.6, 100.0
29.6, 100.0
29.6, 100.0
29.6, 100.0
29.6, 100.0
29.6, 100.0
29.6, 100.0
29.6, 100.0
29.6, 100.0
29.6, 100.0
29.6, 100.0
29.6, 100.0
29.6, 100.0
29.6, 100.0
29.6, 100.0
29.6, 100.0
29.6, 100.0
29.6, 100.0
29.6, 100.0
29.61, 100.0
29.61, 100.0
29.61, 100.0
29.61, 100.0
29.61, 100.0
29.61, 100.0
29.61, 100.0
29.61, 100.0
29.61, 100.0
29.61, 100.0
29.61, 100.0
29.61, 100.0
29.61, 100.0
29.61, 100.0
29.61, 100.0
29.61, 100.0
29.61, 100.0
29.61, 100.0
29.61, 100.0
29.61, 100.0
29.61, 100.0
29.61, 100.0
29.62, 100.0
29.62, 100.0
29.62, 100.0
29.62, 100.0
29.62, 100.0
29.62, 100.0
29.62, 100.0
29.62, 100.0
29.62, 100.0
29.62, 100.0
29.62, 100.0
29.62, 100.0
29.62, 100.0
29.62, 100.0
29.62, 100.0
29.62, 100.0
29.62, 100.0
29.62, 100.0
29.62, 100.0
29.62, 100.0
29.62, 100.0
29.62, 100.0
29.62, 100.0
29.63, 100.0
29.63, 100.0
29.63, 100.0
29.63, 100.0
29.63, 100.0
29.63, 100.0
29.63, 100.0
29.63, 100.0
29.63, 100.0
29.63, 100.0
29.63, 100.0
29.63, 100.0
29.63, 100.0
29.63, 100.0
29.63, 100.0
29.63, 100.0
29.63, 100.0
29.63, 100.0
29.63, 100.0
29.63, 100.0
29.63, 100.0
29.63, 100.0
29.63, 100.0
29.63, 100.0
29.63, 100.0
29.64, 100.0
29.64, 100.0
29.64, 100.0
29.64, 100.0
29.64, 100.0
29.64, 100.0
29.64, 100.0
29.64, 100.0
29.64, 100.0
29.64, 100.0
29.64, 100.0
29.64, 100.0
29.64, 100.0
29.64, 100.0
29.64, 100.0
29.64, 100.0
29.64, 100.0
29.64, 100.0
29.64, 100.0
29.64, 100.0
29.64, 100.0
29.64, 100.0
29.64, 100.0
##END=$$ End of the data block
