##TITLE=Spectrum
##JCAMP-DX=5.00 $$ chemotion-converter-app (1.4.0)
##DATA TYPE=THERMOGRAVIMETRIC ANALYSIS
##DATA CLASS=XYPOINTS
##ORIGIN=
##OWNER=
##XUNITS=DEGREES CELSIUS
##YUNITS=Weight %
##FIRSTX=30.04
##LASTX=29.63
##MINX=29.63
##MAXX=30.05
##MINY=99.31
##MAXY=99.95
##NPOINTS=1800
##FIRSTY=99.95
##XUNITS=DEGREES CELSIUS
##YUNITS=Weight %
##XYPOINTS=(XY..XY)
30.04, 99.95
30.04, 99.95
30.04, 99.95
30.04, 99.95
30.04, 99.95
30.04, 99.95
30.04, 99.95
30.04, 99.95
30.04, 99.95
30.04, 99.95
30.04, 99.95
30.04, 99.95
30.04, 99.95
30.04, 99.95
30.04, 99.95
30.04, 99.95
30.04, 99.95
30.04, 99.95
30.04, 99.95
30.04, 99.94
30.04, 99.94
30.04, 99.94
30.04, 99.94
30.04, 99.94
30.04, 99.94
30.04, 99.94
30.04, 99.94
30.04, 99.94
30.04, 99.94
30.04, 99.94
30.04, 99.94
30.04, 99.94
30.04, 99.94
30.04, 99.94
30.05, 99.94
30.05, 99.94
30.05, 99.94
30.05, 99.94
30.05, 99.94
30.05, 99.94
30.05, 99.93
30.05, 99.93
30.05, 99.93
30.05, 99.93
30.05, 99.93
30.05, 99.93
30.05, 99.93
30.05, 99.93
30.05, 99.93
30.05, 99.93
30.05, 99.93
30.05, 99.93
30.05, 99.93
30.05, 99.93
30.05, 99.93
30.05, 99.93
30.05, 99.93
30.05, 99.93
30.05, 99.93
30.05, 99.93
30.05, 99.93
30.05, 99.92
30.05, 99.92
30.05, 99.92
30.05, 99.92
30.05, 99.92
30.05, 99.92
30.05, 99.92
30.05, 99.92
30.05, 99.92
30.05, 99.92
30.05, 99.92
30.05, 99.92
30.05, 99.92
30.05, 99.92
30.05, 99.92
30.05, 99.92
30.05, 99.92
30.05, 99.92
30.05, 99.92
30.05, 99.92
30.05, 99.92
30.05, 99.92
30.05, 99.91
30.05, 99.91
30.05, 99.91
30.05, 99.91
30.05, 99.91
30.05, 99.91
30.05, 99.91
30.05, 99.91
30.05, 99.91
30.05, 99.91
30.05, 99.91
30.05, 99.91
30.05, 99.91
30.05, 99.91
30.05, 99.91
30.05, 99.91
30.05, 99.91
30.05, 99.91
30.05, 99.91
30.05, 99.91
30.05, 99.91
30.05, 99.91
30.05, 99.9
30.05, 99.9
30.05, 99.9
30.05, 99.9
30.05, 99.9
30.05, 99.9
30.05, 99.9
30.05, 99.9
30.05, 99.9
30.05, 99.9
30.05, 99.9
30.05, 99.9
30.05, 99.9
30.05, 99.9
30.05, 99.9
30.05, 99.9
30.05, 99.9
30.05, 99.9
30.05, 99.9
30.05, 99.9
30.05, 99.9
30.05, 99.89
30.05, 99.89
30.05, 99.89
30.05, 99.89
30.05, 99.89
30.05, 99.89
30.05, 99.89
30.05, 99.89
30.05, 99.89
30.05, 99.89
30.05, 99.89
30.05, 99.89
30.05, 99.89
30.05, 99.89
30.05, 99.89
30.05, 99.89
30.05, 99.89
30.05, 99.89
30.05, 99.89
30.05, 99.89
30.05, 99.89
30.05, 99.89
30.05, 99.88
30.05, 99.88
30.05, 99.88
30.05, 99.88
30.05, 99.88
30.05, 99.88
30.05, 99.88
30.05, 99.88
30.05, 99.88
30.05, 99.88
30.05, 99.88
30.05, 99.88
30.05, 99.88
30.05, 99.88
30.05, 99.88
30.05, 99.88
30.05, 99.88
30.05, 99.88
30.05, 99.88
30.05, 99.88
30.05, 99.88
30.05, 99.88
30.05, 99.87
30.05, 99.87
30.05, 99.87
30.05, 99.87
30.05, 99.87
30.05, 99.87
30.05, 99.87
30.05, 99.87
30.05, 99.87
30.05, 99.87
30.05, 99.87
30.05, 99.87
30.05, 99.87
30.05, 99.87
30.05, 99.87
30.05, 99.87
30.05, 99.87
30.05, 99.87
30.05, 99.87
30.05, 99.87
30.05, 99.87
30.05, 99.87
30.05, 99.86
30.05, 99.86
30.05, 99.86
30.05, 99.86
30.05, 99.86
30.05, 99.86
30.05, 99.86
30.05, 99.86
30.05, 99.86
30.05, 99.86
30.05, 99.86
30.05, 99.86
30.05, 99.86
30.05, 99.86
30.05, 99.86
30.05, 99.86
30.05, 99.86
30.05, 99.86
30.05, 99.86
30.05, 99.86
30.05, 99.86
30.05, 99.86
30.05, 99.85
30.05, 99.85
30.05, 99.85
30.05, 99.85
30.05, 99.85
30.05, 99.85
30.05, 99.85
30.05, 99.85
30.05, 99.85
30.05, 99.85
30.05, 99.85
30.05, 99.85
30.05, 99.85
30.05, 99.85
30.05, 99.85
30.05, 99.85
30.05, 99.85
30.05, 99.85
30.05, 99.85
30.05, 99.85
30.05, 99.85
30.05, 99.85
30.05, 99.84
30.05, 99.84
30.05, 99.84
30.05, 99.84
30.05, 99.84
30.05, 99.84
30.05, 99.84
30.05, 99.84
30.05, 99.84
30.05, 99.84
30.05, 99.84
30.05, 99.84
30.05, 99.84
30.05, 99.84
30.05, 99.84
30.05, 99.84
30.05, 99.84
30.05, 99.84
30.05, 99.84
30.05, 99.84
30.05, 99.84
30.05, 99.83
30.05, 99.83
30.05, 99.83
30.05, 99.83
30.05, 99.83
30.05, 99.83
30.05, 99.83
30.05, 99.83
30.05, 99.83
30.05, 99.83
30.05, 99.83
30.05, 99.83
30.05, 99.83
30.05, 99.83
30.05, 99.83
30.05, 99.83
30.05, 99.83
30.05, 99.83
30.05, 99.83
30.05, 99.83
30.05, 99.83
30.05, 99.83
30.05, 99.83
30.05, 99.82
30.05, 99.82
30.05, 99.82
30.05, 99.82
30.05, 99.82
30.05, 99.82
30.05, 99.82
30.05, 99.82
30.05, 99.82
30.05, 99.82
30.05, 99.82
30.05, 99.82
30.05, 99.82
30.05, 99.82
30.05, 99.82
30.05, 99.82
30.05, 99.82
30.05, 99.82
30.05, 99.82
30.05, 99.82
30.05, 99.82
30.05, 99.82
30.05, 99.81
30.05, 99.81
30.05, 99.81
30.05, 99.81
30.05, 99.81
30.05, 99.81
30.05, 99.81
30.05, 99.81
30.05, 99.81
30.05, 99.81
30.05, 99.81
30.05, 99.81
30.05, 99.81
30.05, 99.81
30.05, 99.81
30.05, 99.81
30.05, 99.81
30.05, 99.81
30.05, 99.81
30.05, 99.81
30.05, 99.81
30.05, 99.81
30.05, 99.81
30.05, 99.8
30.05, 99.8
30.05, 99.8
30.05, 99.8
30.05, 99.8
30.05, 99.8
30.05, 99.8
30.05, 99.8
30.05, 99.8
30.05, 99.8
30.05, 99.8
30.05, 99.8
30.05, 99.8
30.05, 99.8
30.05, 99.8
30.05, 99.8
30.05, 99.8
30.05, 99.8
30.05, 99.8
30.05, 99.8
30.05, 99.8
30.05, 99.8
30.05, 99.8
30.05, 99.79
30.05, 99.79
30.05, 99.79
30.05, 99.79
30.05, 99.79
30.05, 99.79
30.05, 99.79
30.05, 99.79
30.05, 99.79
30.05, 99.79
30.05, 99.79
30.05, 99.79
30.05, 99.79
30.05, 99.79
30.05, 99.79
30.05, 99.79
30.05, 99.79
30.05, 99.79
30.05, 99.79
30.05, 99.79
30.05, 99.79
30.05, 99.79
30.05, 99.79
30.05, 99.78
30.05, 99.78
30.05, 99.78
30.05, 99.78
30.05, 99.78
30.05, 99.78
30.05, 99.78
30.05, 99.78
30.05, 99.78
30.05, 99.78
30.05, 99.78
30.05, 99.78
30.05, 99.78
30.05, 99.78
30.05, 99.78
30.05, 99.78
30.05, 99.78
30.05, 99.78
30.05, 99.78
30.05, 99.78
30.05, 99.78
30.05, 99.78
30.05, 99.78
30.05, 99.77
30.05, 99.77
30.05, 99.77
30.05, 99.77
30.05, 99.77
30.05, 99.77
30.05, 99.77
30.05, 99.77
30.05, 99.77
30.05, 99.77
30.05, 99.77
30.05, 99.77
30.05, 99.77
30.05, 99.77
30.05, 99.77
30.05, 99.77
30.05, 99.77
30.05, 99.77
30.05, 99.77
30.05, 99.77
30.05, 99.77
30.05, 99.77
30.05, 99.77
30.05, 99.77
30.05, 99.76
30.05, 99.76
30.05, 99.76
30.05, 99.76
30.05, 99.76
30.05, 99.76
30.05, 99.76
30.05, 99.76
30.05, 99.76
30.05, 99.76
30.05, 99.76
30.05, 99.76
30.05, 99.76
30.05, 99.76
30.05, 99.76
30.05, 99.76
30.05, 99.76
30.05, 99.76
30.05, 99.76
30.05, 99.76
30.05, 99.76
30.05, 99.76
30.05, 99.76
30.05, 99.76
30.05, 99.75
30.05, 99.75
30.05, 99.75
30.05, 99.75
30.05, 99.75
30.05, 99.75
30.05, 99.75
30.05, 99.75
30.05, 99.75
30.05, 99.75
30.04, 99.75
30.04, 99.75
30.04, 99.75
30.04, 99.75
30.04, 99.75
30.04, 99.75
30.04, 99.75
30.04, 99.75
30.04, 99.75
30.04, 99.75
30.04, 99.75
30.04, 99.75
30.04, 99.75
30.04, 99.75
30.04, 99.74
30.04, 99.74
30.04, 99.74
30.04, 99.74
30.04, 99.74
30.04, 99.74
30.04, 99.74
30.04, 99.74
30.04, 99.74
30.04, 99.74
30.04, 99.74
30.04, 99.74
30.04, 99.74
30.04, 99.74
30.04, 99.74
30.04, 99.74
30.04, 99.74
30.04, 99.74
30.04, 99.74
30.04, 99.74
30.04, 99.74
30.04, 99.74
30.04, 99.74
30.04, 99.74
30.04, 99.73
30.04, 99.73
30.04, 99.73
30.04, 99.73
30.04, 99.73
30.04, 99.73
30.04, 99.73
30.04, 99.73
30.04, 99.73
30.04, 99.73
30.04, 99.73
30.04, 99.73
30.04, 99.73
30.04, 99.73
30.04, 99.73
30.04, 99.73
30.04, 99.73
30.04, 99.73
30.04, 99.73
30.04, 99.73
30.04, 99.73
30.04, 99.73
30.04, 99.73
30.04, 99.73
30.04, 99.73
30.04, 99.72
30.04, 99.72
30.04, 99.72
30.04, 99.72
30.04, 99.72
30.04, 99.72
30.04, 99.72
30.04, 99.72
30.04, 99.72
30.04, 99.72
30.04, 99.72
30.04, 99.72
30.04, 99.72
30.04, 99.72
30.03, 99.72
30.03, 99.72
30.03, 99.72
30.03, 99.72
30.03, 99.72
30.03, 99.72
30.03, 99.72
30.03, 99.72
30.03, 99.72
30.03, 99.72
30.03, 99.72
30.03, 99.71
30.03, 99.71
30.03, 99.71
30.03, 99.71
30.03, 99.71
30.03, 99.71
30.03, 99.71
30.03, 99.71
30.03, 99.71
30.03, 99.71
30.03, 99.71
30.03, 99.71
30.03, 99.71
30.03, 99.71
30.03, 99.71
30.03, 99.71
30.03, 99.71
30.03, 99.71
30.03, 99.71
30.03, 99.71
30.03, 99.71
30.03, 99.71
30.03, 99.71
30.03, 99.71
30.03, 99.71
30.03, 99.71
30.03, 99.7
30.03, 99.7
30.03, 99.7
30.03, 99.7
30.03, 99.7
30.03, 99.7
30.03, 99.7
30.03, 99.7
30.03, 99.7
30.03, 99.7
30.03, 99.7
30.03, 99.7
30.03, 99.7
30.03, 99.7
30.03, 99.7
30.03, 99.7
30.03, 99.7
30.03, 99.7
30.03, 99.7
30.03, 99.7
30.03, 99.7
30.03, 99.7
30.02, 99.7
30.02, 99.7
30.02, 99.7
30.02, 99.69
30.02, 99.69
30.02, 99.69
30.02, 99.69
30.02, 99.69
30.02, 99.69
30.02, 99.69
30.02, 99.69
30.02, 99.69
30.02, 99.69
30.02, 99.69
30.02, 99.69
30.02, 99.69
30.02, 99.69
30.02, 99.69
30.02, 99.69
30.02, 99.69
30.02, 99.69
30.02, 99.69
30.02, 99.69
30.02, 99.69
30.02, 99.69
30.02, 99.69
30.02, 99.69
30.02, 99.69
30.02, 99.69
30.02, 99.68
30.02, 99.68
30.02, 99.68
30.02, 99.68
30.02, 99.68
30.02, 99.68
30.02, 99.68
30.02, 99.68
30.02, 99.68
30.02, 99.68
30.02, 99.68
30.02, 99.68
30.02, 99.68
30.02, 99.68
30.02, 99.68
30.02, 99.68
30.02, 99.68
30.02, 99.68
30.02, 99.68
30.02, 99.68
30.02, 99.68
30.02, 99.68
30.02, 99.68
30.02, 99.68
30.02, 99.68
30.02, 99.68
30.01, 99.67
30.01, 99.67
30.01, 99.67
30.01, 99.67
30.01, 99.67
30.01, 99.67
30.01, 99.67
30.01, 99.67
30.01, 99.67
30.01, 99.67
30.01, 99.67
30.01, 99.67
30.01, 99.67
30.01, 99.67
30.01, 99.67
30.01, 99.67
30.01, 99.67
30.01, 99.67
30.01, 99.67
30.01, 99.67
30.01, 99.67
30.01, 99.67
30.01, 99.67
30.01, 99.67
30.01, 99.67
30.01, 99.67
30.01, 99.66
30.01, 99.66
30.01, 99.66
30.01, 99.66
30.01, 99.66
30.01, 99.66
30.01, 99.66
30.01, 99.66
30.01, 99.66
30.01, 99.66
30.01, 99.66
30.01, 99.66
30.01, 99.66
30.01, 99.66
30.01, 99.66
30.01, 99.66
30.01, 99.66
30.01, 99.66
30.01, 99.66
30.01, 99.66
30.01, 99.66
30.01, 99.66
30.01, 99.66
30.01, 99.66
30.0, 99.66
30.0, 99.66
30.0, 99.65
30.0, 99.65
30.0, 99.65
30.0, 99.65
30.0, 99.65
30.0, 99.65
30.0, 99.65
30.0, 99.65
30.0, 99.65
30.0, 99.65
30.0, 99.65
30.0, 99.65
30.0, 99.65
30.0, 99.65
30.0, 99.65
30.0, 99.65
30.0, 99.65
30.0, 99.65
30.0, 99.65
30.0, 99.65
30.0, 99.65
30.0, 99.65
30.0, 99.65
30.0, 99.65
30.0, 99.65
30.0, 99.65
30.0, 99.65
30.0, 99.65
30.0, 99.64
30.0, 99.64
30.0, 99.64
30.0, 99.64
30.0, 99.64
30.0, 99.64
30.0, 99.64
30.0, 99.64
30.0, 99.64
30.0, 99.64
30.0, 99.64
30.0, 99.64
30.0, 99.64
30.0, 99.64
30.0, 99.64
30.0, 99.64
29.99, 99.64
29.99, 99.64
29.99, 99.64
29.99, 99.64
29.99, 99.64
29.99, 99.64
29.99, 99.64
29.99, 99.64
29.99, 99.64
29.99, 99.64
29.99, 99.64
29.99, 99.63
29.99, 99.63
29.99, 99.63
29.99, 99.63
29.99, 99.63
29.99, 99.63
29.99, 99.63
29.99, 99.63
29.99, 99.63
29.99, 99.63
29.99, 99.63
29.99, 99.63
29.99, 99.63
29.99, 99.63
29.99, 99.63
29.99, 99.63
29.99, 99.63
29.99, 99.63
29.99, 99.63
29.99, 99.63
29.99, 99.63
29.99, 99.63
29.99, 99.63
29.99, 99.63
29.99, 99.63
29.99, 99.63
29.99, 99.63
29.99, 99.62
29.99, 99.62
29.98, 99.62
29.98, 99.62
29.98, 99.62
29.98, 99.62
29.98, 99.62
29.98, 99.62
29.98, 99.62
29.98, 99.62
29.98, 99.62
29.98, 99.62
29.98, 99.62
29.98, 99.62
29.98, 99.62
29.98, 99.62
29.98, 99.62
29.98, 99.62
29.98, 99.62
29.98, 99.62
29.98, 99.62
29.98, 99.62
29.98, 99.62
29.98, 99.62
29.98, 99.62
29.98, 99.62
29.98, 99.62
29.98, 99.62
29.98, 99.61
29.98, 99.61
29.98, 99.61
29.98, 99.61
29.98, 99.61
29.98, 99.61
29.98, 99.61
29.98, 99.61
29.97, 99.61
29.97, 99.61
29.97, 99.61
29.97, 99.61
29.97, 99.61
29.97, 99.61
29.97, 99.61
29.97, 99.61
29.97, 99.61
29.97, 99.61
29.97, 99.61
29.97, 99.61
29.97, 99.61
29.97, 99.61
29.97, 99.61
29.97, 99.61
29.97, 99.61
29.97, 99.61
29.97, 99.61
29.97, 99.61
29.97, 99.6
29.97, 99.6
29.97, 99.6
29.97, 99.6
29.97, 99.6
29.97, 99.6
29.97, 99.6
29.97, 99.6
29.97, 99.6
29.97, 99.6
29.97, 99.6
29.97, 99.6
29.97, 99.6
29.96, 99.6
29.96, 99.6
29.96, 99.6
29.96, 99.6
29.96, 99.6
29.96, 99.6
29.96, 99.6
29.96, 99.6
29.96, 99.6
29.96, 99.6
29.96, 99.6
29.96, 99.6
29.96, 99.6
29.96, 99.6
29.96, 99.6
29.96, 99.6
29.96, 99.59
29.96, 99.59
29.96, 99.59
29.96, 99.59
29.96, 99.59
29.96, 99.59
29.96, 99.59
29.96, 99.59
29.96, 99.59
29.96, 99.59
29.96, 99.59
29.96, 99.59
29.96, 99.59
29.96, 99.59
29.96, 99.59
29.96, 99.59
29.95, 99.59
29.95, 99.59
29.95, 99.59
29.95, 99.59
29.95, 99.59
29.95, 99.59
29.95, 99.59
29.95, 99.59
29.95, 99.59
29.95, 99.59
29.95, 99.59
29.95, 99.59
29.95, 99.58
29.95, 99.58
29.95, 99.58
29.95, 99.58
29.95, 99.58
29.95, 99.58
29.95, 99.58
29.95, 99.58
29.95, 99.58
29.95, 99.58
29.95, 99.58
29.95, 99.58
29.95, 99.58
29.95, 99.58
29.95, 99.58
29.95, 99.58
29.95, 99.58
29.95, 99.58
29.95, 99.58
29.95, 99.58
29.94, 99.58
29.94, 99.58
29.94, 99.58
29.94, 99.58
29.94, 99.58
29.94, 99.58
29.94, 99.58
29.94, 99.58
29.94, 99.58
29.94, 99.57
29.94, 99.57
29.94, 99.57
29.94, 99.57
29.94, 99.57
29.94, 99.57
29.94, 99.57
29.94, 99.57
29.94, 99.57
29.94, 99.57
29.94, 99.57
29.94, 99.57
29.94, 99.57
29.94, 99.57
29.94, 99.57
29.94, 99.57
29.94, 99.57
29.94, 99.57
29.94, 99.57
29.94, 99.57
29.94, 99.57
29.93, 99.57
29.93, 99.57
29.93, 99.57
29.93, 99.57
29.93, 99.57
29.93, 99.57
29.93, 99.57
29.93, 99.57
29.93, 99.56
29.93, 99.56
29.93, 99.56
29.93, 99.56
29.93, 99.56
29.93, 99.56
29.93, 99.56
29.93, 99.56
29.93, 99.56
29.93, 99.56
29.93, 99.56
29.93, 99.56
29.93, 99.56
29.93, 99.56
29.93, 99.56
29.93, 99.56
29.93, 99.56
29.93, 99.56
29.93, 99.56
29.93, 99.56
29.93, 99.56
29.93, 99.56
29.92, 99.56
29.92, 99.56
29.92, 99.56
29.92, 99.56
29.92, 99.56
29.92, 99.56
29.92, 99.56
29.92, 99.56
29.92, 99.55
29.92, 99.55
29.92, 99.55
29.92, 99.55
29.92, 99.55
29.92, 99.55
29.92, 99.55
29.92, 99.55
29.92, 99.55
29.92, 99.55
29.92, 99.55
29.92, 99.55
29.92, 99.55
29.92, 99.55
29.92, 99.55
29.92, 99.55
29.92, 99.55
29.92, 99.55
29.92, 99.55
29.92, 99.55
29.92, 99.55
29.92, 99.55
29.92, 99.55
29.91, 99.55
29.91, 99.55
29.91, 99.55
29.91, 99.55
29.91, 99.55
29.91, 99.55
29.91, 99.55
29.91, 99.54
29.91, 99.54
29.91, 99.54
29.91, 99.54
29.91, 99.54
29.91, 99.54
29.91, 99.54
29.91, 99.54
29.91, 99.54
29.91, 99.54
29.91, 99.54
29.91, 99.54
29.91, 99.54
29.91, 99.54
29.91, 99.54
29.91, 99.54
29.91, 99.54
29.91, 99.54
29.91, 99.54
29.91, 99.54
29.91, 99.54
29.91, 99.54
29.91, 99.54
29.9, 99.54
29.9, 99.54
29.9, 99.54
29.9, 99.54
29.9, 99.54
29.9, 99.54
29.9, 99.54
29.9, 99.53
29.9, 99.53
29.9, 99.53
29.9, 99.53
29.9, 99.53
29.9, 99.53
29.9, 99.53
29.9, 99.53
29.9, 99.53
29.9, 99.53
29.9, 99.53
29.9, 99.53
29.9, 99.53
29.9, 99.53
29.9, 99.53
29.9, 99.53
29.9, 99.53
29.9, 99.53
29.9, 99.53
29.9, 99.53
29.9, 99.53
29.9, 99.53
29.9, 99.53
29.9, 99.53
29.9, 99.53
29.89, 99.53
29.89, 99.53
29.89, 99.53
29.89, 99.53
29.89, 99.53
29.89, 99.53
29.89, 99.52
29.89, 99.52
29.89, 99.52
29.89, 99.52
29.89, 99.52
29.89, 99.52
29.89, 99.52
29.89, 99.52
29.89, 99.52
29.89, 99.52
29.89, 99.52
29.89, 99.52
29.89, 99.52
29.89, 99.52
29.89, 99.52
29.89, 99.52
29.89, 99.52
29.89, 99.52
29.89, 99.52
29.89, 99.52
29.89, 99.52
29.89, 99.52
29.89, 99.52
29.89, 99.52
29.89, 99.52
29.89, 99.52
29.89, 99.52
29.89, 99.52
29.88, 99.52
29.88, 99.52
29.88, 99.52
29.88, 99.51
29.88, 99.51
29.88, 99.51
29.88, 99.51
29.88, 99.51
29.88, 99.51
29.88, 99.51
29.88, 99.51
29.88, 99.51
29.88, 99.51
29.88, 99.51
29.88, 99.51
29.88, 99.51
29.88, 99.51
29.88, 99.51
29.88, 99.51
29.88, 99.51
29.88, 99.51
29.88, 99.51
29.88, 99.51
29.88, 99.51
29.88, 99.51
29.88, 99.51
29.88, 99.51
29.88, 99.51
29.88, 99.51
29.88, 99.51
29.88, 99.51
29.88, 99.51
29.88, 99.51
29.88, 99.51
29.88, 99.5
29.87, 99.5
29.87, 99.5
29.87, 99.5
29.87, 99.5
29.87, 99.5
29.87, 99.5
29.87, 99.5
29.87, 99.5
29.87, 99.5
29.87, 99.5
29.87, 99.5
29.87, 99.5
29.87, 99.5
29.87, 99.5
29.87, 99.5
29.87, 99.5
29.87, 99.5
29.87, 99.5
29.87, 99.5
29.87, 99.5
29.87, 99.5
29.87, 99.5
29.87, 99.5
29.87, 99.5
29.87, 99.5
29.87, 99.5
29.87, 99.5
29.87, 99.5
29.87, 99.5
29.87, 99.5
29.87, 99.49
29.87, 99.49
29.87, 99.49
29.87, 99.49
29.86, 99.49
29.86, 99.49
29.86, 99.49
29.86, 99.49
29.86, 99.49
29.86, 99.49
29.86, 99.49
29.86, 99.49
29.86, 99.49
29.86, 99.49
29.86, 99.49
29.86, 99.49
29.86, 99.49
29.86, 99.49
29.86, 99.49
29.86, 99.49
29.86, 99.49
29.86, 99.49
29.86, 99.49
29.86, 99.49
29.86, 99.49
29.86, 99.49
29.86, 99.49
29.86, 99.49
29.86, 99.49
29.86, 99.49
29.86, 99.49
29.86, 99.49
29.86, 99.48
29.86, 99.48
29.86, 99.48
29.86, 99.48
29.86, 99.48
29.85, 99.48
29.85, 99.48
29.85, 99.48
29.85, 99.48
29.85, 99.48
29.85, 99.48
29.85, 99.48
29.85, 99.48
29.85, 99.48
29.85, 99.48
29.85, 99.48
29.85, 99.48
29.85, 99.48
29.85, 99.48
29.85, 99.48
29.85, 99.48
29.85, 99.48
29.85, 99.48
29.85, 99.48
29.85, 99.48
29.85, 99.48
29.85, 99.48
29.85, 99.48
29.85, 99.48
29.85, 99.48
29.85, 99.48
29.85, 99.48
29.85, 99.47
29.85, 99.47
29.85, 99.47
29.85, 99.47
29.85, 99.47
29.85, 99.47
29.84, 99.47
29.84, 99.47
29.84, 99.47
29.84, 99.47
29.84, 99.47
29.84, 99.47
29.84, 99.47
29.84, 99.47
29.84, 99.47
29.84, 99.47
29.84, 99.47
29.84, 99.47
29.84, 99.47
29.84, 99.47
29.84, 99.47
29.84, 99.47
29.84, 99.47
29.84, 99.47
29.84, 99.47
29.84, 99.47
29.84, 99.47
29.84, 99.47
29.84, 99.47
29.84, 99.47
29.84, 99.47
29.84, 99.47
29.84, 99.46
29.84, 99.46
29.84, 99.46
29.84, 99.46
29.84, 99.46
29.84, 99.46
29.84, 99.46
29.83, 99.46
29.83, 99.46
29.83, 99.46
29.83, 99.46
29.83, 99.46
29.83, 99.46
29.83, 99.46
29.83, 99.46
29.83, 99.46
29.83, 99.46
29.83, 99.46
29.83, 99.46
29.83, 99.46
29.83, 99.46
29.83, 99.46
29.83, 99.46
29.83, 99.46
29.83, 99.46
29.83, 99.46
29.83, 99.46
29.83, 99.46
29.83, 99.46
29.83, 99.46
29.83, 99.46
29.83, 99.46
29.83, 99.46
29.83, 99.45
29.83, 99.45
29.83, 99.45
29.83, 99.45
29.83, 99.45
29.83, 99.45
29.82, 99.45
29.82, 99.45
29.82, 99.45
29.82, 99.45
29.82, 99.45
29.82, 99.45
29.82, 99.45
29.82, 99.45
29.82, 99.45
29.82, 99.45
29.82, 99.45
29.82, 99.45
29.82, 99.45
29.82, 99.45
29.82, 99.45
29.82, 99.45
29.82, 99.45
29.82, 99.45
29.82, 99.45
29.82, 99.45
29.82, 99.45
29.82, 99.45
29.82, 99.45
29.82, 99.45
29.82, 99.45
29.82, 99.45
29.82, 99.45
29.82, 99.44
29.82, 99.44
29.82, 99.44
29.81, 99.44
29.81, 99.44
29.81, 99.44
29.81, 99.44
29.81, 99.44
29.81, 99.44
29.81, 99.44
29.81, 99.44
29.81, 99.44
29.81, 99.44
29.81, 99.44
29.81, 99.44
29.81, 99.44
29.81, 99.44
29.81, 99.44
29.81, 99.44
29.81, 99.44
29.81, 99.44
29.81, 99.44
29.81, 99.44
29.81, 99.44
29.81, 99.44
29.81, 99.44
29.81, 99.44
29.81, 99.44
29.81, 99.44
29.81, 99.44
29.81, 99.44
29.81, 99.44
29.81, 99.44
29.8, 99.44
29.8, 99.43
29.8, 99.43
29.8, 99.43
29.8, 99.43
29.8, 99.43
29.8, 99.43
29.8, 99.43
29.8, 99.43
29.8, 99.43
29.8, 99.43
29.8, 99.43
29.8, 99.43
29.8, 99.43
29.8, 99.43
29.8, 99.43
29.8, 99.43
29.8, 99.43
29.8, 99.43
29.8, 99.43
29.8, 99.43
29.8, 99.43
29.8, 99.43
29.8, 99.43
29.8, 99.43
29.8, 99.43
29.8, 99.43
29.8, 99.43
29.8, 99.43
29.79, 99.43
29.79, 99.43
29.79, 99.43
29.79, 99.43
29.79, 99.43
29.79, 99.43
29.79, 99.42
29.79, 99.42
29.79, 99.42
29.79, 99.42
29.79, 99.42
29.79, 99.42
29.79, 99.42
29.79, 99.42
29.79, 99.42
29.79, 99.42
29.79, 99.42
29.79, 99.42
29.79, 99.42
29.79, 99.42
29.79, 99.42
29.79, 99.42
29.79, 99.42
29.79, 99.42
29.79, 99.42
29.79, 99.42
29.79, 99.42
29.79, 99.42
29.78, 99.42
29.78, 99.42
29.78, 99.42
29.78, 99.42
29.78, 99.42
29.78, 99.42
29.78, 99.42
29.78, 99.42
29.78, 99.42
29.78, 99.42
29.78, 99.42
29.78, 99.41
29.78, 99.41
29.78, 99.41
29.78, 99.41
29.78, 99.41
29.78, 99.41
29.78, 99.41
29.78, 99.41
29.78, 99.41
29.78, 99.41
29.78, 99.41
29.78, 99.41
29.78, 99.41
29.78, 99.41
29.78, 99.41
29.78, 99.41
29.78, 99.41
29.78, 99.41
29.77, 99.41
29.77, 99.41
29.77, 99.41
29.77, 99.41
29.77, 99.41
29.77, 99.41
29.77, 99.41
29.77, 99.41
29.77, 99.41
29.77, 99.41
29.77, 99.41
29.77, 99.41
29.77, 99.41
29.77, 99.41
29.77, 99.41
29.77, 99.41
29.77, 99.41
29.77, 99.4
29.77, 99.4
29.77, 99.4
29.77, 99.4
29.77, 99.4
29.77, 99.4
29.77, 99.4
29.77, 99.4
29.77, 99.4
29.77, 99.4
29.77, 99.4
29.77, 99.4
29.76, 99.4
29.76, 99.4
29.76, 99.4
29.76, 99.4
29.76, 99.4
29.76, 99.4
29.76, 99.4
29.76, 99.4
29.76, 99.4
29.76, 99.4
29.76, 99.4
29.76, 99.4
29.76, 99.4
29.76, 99.4
29.76, 99.4
29.76, 99.4
29.76, 99.4
29.76, 99.4
29.76, 99.4
29.76, 99.4
29.76, 99.4
29.76, 99.4
29.76, 99.39
29.76, 99.39
29.76, 99.39
29.76, 99.39
29.76, 99.39
29.76, 99.39
29.76, 99.39
29.75, 99.39
29.75, 99.39
29.75, 99.39
29.75, 99.39
29.75, 99.39
29.75, 99.39
29.75, 99.39
29.75, 99.39
29.75, 99.39
29.75, 99.39
29.75, 99.39
29.75, 99.39
29.75, 99.39
29.75, 99.39
29.75, 99.39
29.75, 99.39
29.75, 99.39
29.75, 99.39
29.75, 99.39
29.75, 99.39
29.75, 99.39
29.75, 99.39
29.75, 99.39
29.75, 99.39
29.75, 99.39
29.75, 99.39
29.75, 99.39
29.75, 99.39
29.75, 99.38
29.74, 99.38
29.74, 99.38
29.74, 99.38
29.74, 99.38
29.74, 99.38
29.74, 99.38
29.74, 99.38
29.74, 99.38
29.74, 99.38
29.74, 99.38
29.74, 99.38
29.74, 99.38
29.74, 99.38
29.74, 99.38
29.74, 99.38
29.74, 99.38
29.74, 99.38
29.74, 99.38
29.74, 99.38
29.74, 99.38
29.74, 99.38
29.74, 99.38
29.74, 99.38
29.74, 99.38
29.74, 99.38
29.74, 99.38
29.73, 99.38
29.73, 99.38
29.73, 99.38
29.73, 99.38
29.73, 99.38
29.73, 99.38
29.73, 99.38
29.73, 99.38
29.73, 99.38
29.73, 99.37
29.73, 99.37
29.73, 99.37
29.73, 99.37
29.73, 99.37
29.73, 99.37
29.73, 99.37
29.73, 99.37
29.73, 99.37
29.73, 99.37
29.73, 99.37
29.73, 99.37
29.73, 99.37
29.73, 99.37
29.73, 99.37
29.73, 99.37
29.73, 99.37
29.72, 99.37
29.72, 99.37
29.72, 99.37
29.72, 99.37
29.72, 99.37
29.72, 99.37
29.72, 99.37
29.72, 99.37
29.72, 99.37
29.72, 99.37
29.72, 99.37
29.72, 99.37
29.72, 99.37
29.72, 99.37
29.72, 99.37
29.72, 99.37
29.72, 99.37
29.72, 99.37
29.72, 99.36
29.72, 99.36
29.72, 99.36
29.72, 99.36
29.72, 99.36
29.72, 99.36
29.72, 99.36
29.71, 99.36
29.71, 99.36
29.71, 99.36
29.71, 99.36
29.71, 99.36
29.71, 99.36
29.71, 99.36
29.71, 99.36
29.71, 99.36
29.71, 99.36
29.71, 99.36
29.71, 99.36
29.71, 99.36
29.71, 99.36
29.71, 99.36
29.71, 99.36
29.71, 99.36
29.71, 99.36
29.71, 99.36
29.71, 99.36
29.71, 99.36
29.71, 99.36
29.71, 99.36
29.71, 99.36
29.71, 99.36
29.7, 99.36
29.7, 99.36
29.7, 99.36
29.7, 99.36
29.7, 99.36
29.7, 99.35
29.7, 99.35
29.7, 99.35
29.7, 99.35
29.7, 99.35
29.7, 99.35
29.7, 99.35
29.7, 99.35
29.7, 99.35
29.7, 99.35
29.7, 99.35
29.7, 99.35
29.7, 99.35
29.7, 99.35
29.7, 99.35
29.7, 99.35
29.7, 99.35
29.7, 99.35
29.7, 99.35
29.69, 99.35
29.69, 99.35
29.69, 99.35
29.69, 99.35
29.69, 99.35
29.69, 99.35
29.69, 99.35
29.69, 99.35
29.69, 99.35
29.69, 99.35
29.69, 99.35
29.69, 99.35
29.69, 99.35
29.69, 99.35
29.69, 99.35
29.69, 99.35
29.69, 99.35
29.69, 99.34
29.69, 99.34
29.69, 99.34
29.69, 99.34
29.69, 99.34
29.69, 99.34
29.69, 99.34
29.68, 99.34
29.68, 99.34
29.68, 99.34
29.68, 99.34
29.68, 99.34
29.68, 99.34
29.68, 99.34
29.68, 99.34
29.68, 99.34
29.68, 99.34
29.68, 99.34
29.68, 99.34
29.68, 99.34
29.68, 99.34
29.68, 99.34
29.68, 99.34
29.68, 99.34
29.68, 99.34
29.68, 99.34
29.68, 99.34
29.68, 99.34
29.68, 99.34
29.68, 99.34
29.68, 99.34
29.67, 99.34
29.67, 99.34
29.67, 99.34
29.67, 99.34
29.67, 99.34
29.67, 99.34
29.67, 99.33
29.67, 99.33
29.67, 99.33
29.67, 99.33
29.67, 99.33
29.67, 99.33
29.67, 99.33
29.67, 99.33
29.67, 99.33
29.67, 99.33
29.67, 99.33
29.67, 99.33
29.67, 99.33
29.67, 99.33
29.67, 99.33
29.67, 99.33
29.67, 99.33
29.67, 99.33
29.66, 99.33
29.66, 99.33
29.66, 99.33
29.66, 99.33
29.66, 99.33
29.66, 99.33
29.66, 99.33
29.66, 99.33
29.66, 99.33
29.66, 99.33
29.66, 99.33
29.66, 99.33
29.66, 99.33
29.66, 99.33
29.66, 99.33
29.66, 99.33
29.66, 99.33
29.66, 99.33
29.66, 99.33
29.66, 99.33
29.66, 99.32
29.66, 99.32
29.66, 99.32
29.65, 99.32
29.65, 99.32
29.65, 99.32
29.65, 99.32
29.65, 99.32
29.65, 99.32
29.65, 99.32
29.65, 99.32
29.65, 99.32
29.65, 99.32
29.65, 99.32
29.65, 99.32
29.65, 99.32
29.65, 99.32
29.65, 99.32
29.65, 99.32
29.65, 99.32
29.65, 99.32
29.65, 99.32
29.65, 99.32
29.65, 99.32
29.65, 99.32
29.65, 99.32
29.64, 99.32
29.64, 99.32
29.64, 99.32
29.64, 99.32
29.64, 99.32
29.64, 99.32
29.64, 99.32
29.64, 99.32
29.64, 99.32
29.64, 99.32
29.64, 99.32
29.64, 99.32
29.64, 99.31
29.64, 99.31
29.64, 99.31
29.64, 99.31
29.64, 99.31
29.64, 99.31
29.64, 99.31
29.64, 99.31
29.64, 99.31
29.64, 99.31
29.64, 99.31
29.63, 99.31
29.63, 99.31
29.63, 99.31
##END=$$ End of the data block
