##TITLE=Spectrum
##JCAMP-DX=5.00 $$ chemotion-converter-app (1.1.0)
##DATA TYPE=CYCLIC VOLTAMMETRY
##DATA CLASS=XYPOINTS
##ORIGIN=
##OWNER=
##XUNITS=Voltage vs Ref
##YUNITS=Ampere
##SCAN_RATE=0.09987838172697448
##STEP_SIZE=0.0019811875749342514
##VOLTAGE_LIMIT_END=1.00006103515625
##VOLTAGE_START=0.998077392578125
##VOLTAGE_LIMIT_ONE=0.599365234375
##VOLTAGE_LIMIT_TWO=1.4007568359375
##FIRSTX=0.998077392578125
##LASTX=1.00006103515625
##MINX=0.599365234375
##MAXX=1.4007568359375
##MINY=-1.3262939453125e-06
##MAXY=3.0780029296875e-06
##NPOINTS=808
##FIRSTY=-2.9327392578125E-07
##XUNITS=Voltage vs Ref
##YUNITS=Ampere
##XYPOINTS=(XY..XY)
0.998077392578125, -2.9327392578125E-07
0.99609375, -3.02764892578125E-07
0.994110107421875, -3.11431884765625E-07
0.99212646484375, -3.20404052734375E-07
0.990142822265625, -3.28582763671875E-07
0.9881591796875, -3.3648681640625E-07
0.986175537109375, -3.45245361328125E-07
0.98419189453125, -3.52691650390625E-07
0.982208251953125, -3.6126708984375E-07
0.980224609375, -3.67706298828125E-07
0.978240966796875, -3.756103515625E-07
0.97625732421875, -3.824462890625E-07
0.974273681640625, -3.89434814453125E-07
0.9722900390625, -3.9532470703125E-07
0.970306396484375, -4.017333984375E-07
0.96832275390625, -4.0850830078125E-07
0.966339111328125, -4.14215087890625E-07
0.96435546875, -4.20257568359375E-07
0.962371826171875, -4.25750732421875E-07
0.96038818359375, -4.31915283203125E-07
0.958404541015625, -4.3731689453125E-07
0.9564208984375, -4.42138671875E-07
0.954437255859375, -4.47967529296875E-07
0.95245361328125, -4.5306396484375E-07
0.950469970703125, -4.5794677734375E-07
0.948486328125, -4.63134765625E-07
0.946502685546875, -4.676513671875E-07
0.94451904296875, -4.7283935546875E-07
0.942535400390625, -4.77203369140625E-07
0.9405517578125, -4.81536865234375E-07
0.938568115234375, -4.86083984375E-07
0.93658447265625, -4.903564453125E-07
0.934600830078125, -4.951171875E-07
0.9326171875, -4.991455078125E-07
0.930633544921875, -5.03173828125E-07
0.92864990234375, -5.0787353515625E-07
0.926666259765625, -5.1202392578125E-07
0.9246826171875, -5.1617431640625E-07
0.922698974609375, -5.20782470703125E-07
0.92071533203125, -5.24658203125E-07
0.918731689453125, -5.29571533203125E-07
0.916748046875, -5.3326416015625E-07
0.914764404296875, -5.37994384765625E-07
0.91278076171875, -5.42327880859375E-07
0.910797119140625, -5.46661376953125E-07
0.9088134765625, -5.51422119140625E-07
0.906829833984375, -5.55938720703125E-07
0.90484619140625, -5.6072998046875E-07
0.902862548828125, -5.65582275390625E-07
0.90087890625, -5.70465087890625E-07
0.898895263671875, -5.75469970703125E-07
0.89691162109375, -5.8074951171875E-07
0.894927978515625, -5.859375E-07
0.8929443359375, -5.91400146484375E-07
0.890960693359375, -5.9698486328125E-07
0.88897705078125, -6.02386474609375E-07
0.886993408203125, -6.0791015625E-07
0.885009765625, -6.1431884765625E-07
0.883026123046875, -6.2042236328125E-07
0.88104248046875, -6.268310546875E-07
0.879058837890625, -6.341552734375E-07
0.8770751953125, -6.40869140625E-07
0.875091552734375, -6.4788818359375E-07
0.87310791015625, -6.5521240234375E-07
0.871124267578125, -6.6375732421875E-07
0.869140625, -6.7169189453125E-07
0.867156982421875, -6.793212890625E-07
0.86517333984375, -6.8817138671875E-07
0.863189697265625, -6.9671630859375E-07
0.8612060546875, -7.061767578125E-07
0.859222412109375, -7.1563720703125E-07
0.85723876953125, -7.2509765625E-07
0.855255126953125, -7.3486328125E-07
0.853271484375, -7.452392578125E-07
0.851287841796875, -7.5592041015625E-07
0.84930419921875, -7.666015625E-07
0.847320556640625, -7.781982421875E-07
0.8453369140625, -7.89794921875E-07
0.843353271484375, -8.02001953125E-07
0.84136962890625, -8.1390380859375E-07
0.839385986328125, -8.2672119140625E-07
0.83740234375, -8.3953857421875E-07
0.835418701171875, -8.526611328125E-07
0.83343505859375, -8.6639404296875E-07
0.831451416015625, -8.7982177734375E-07
0.8294677734375, -8.9447021484375E-07
0.827484130859375, -9.08203125E-07
0.82550048828125, -9.228515625E-07
0.823516845703125, -9.3719482421875E-07
0.821533203125, -9.5245361328125E-07
0.819549560546875, -9.674072265625E-07
0.81756591796875, -9.8236083984375E-07
0.815582275390625, -9.979248046875E-07
0.8135986328125, -1.01348876953125E-06
0.811614990234375, -1.029052734375E-06
0.80963134765625, -1.0443115234375E-06
0.807647705078125, -1.06048583984375E-06
0.8056640625, -1.075439453125E-06
0.803680419921875, -1.09039306640625E-06
0.80169677734375, -1.10626220703125E-06
0.799713134765625, -1.12091064453125E-06
0.7977294921875, -1.1358642578125E-06
0.795745849609375, -1.15020751953125E-06
0.79376220703125, -1.16424560546875E-06
0.791778564453125, -1.1785888671875E-06
0.789794921875, -1.19140625E-06
0.787811279296875, -1.204833984375E-06
0.78582763671875, -1.21734619140625E-06
0.783843994140625, -1.229248046875E-06
0.7818603515625, -1.23992919921875E-06
0.779876708984375, -1.251220703125E-06
0.77789306640625, -1.26068115234375E-06
0.775909423828125, -1.27044677734375E-06
0.77392578125, -1.279296875E-06
0.771942138671875, -1.28692626953125E-06
0.76995849609375, -1.29425048828125E-06
0.767974853515625, -1.3006591796875E-06
0.7659912109375, -1.3067626953125E-06
0.764007568359375, -1.31134033203125E-06
0.76202392578125, -1.31591796875E-06
0.760040283203125, -1.31927490234375E-06
0.758056640625, -1.32232666015625E-06
0.756072998046875, -1.324462890625E-06
0.75408935546875, -1.32568359375E-06
0.752105712890625, -1.3262939453125E-06
0.7501220703125, -1.3262939453125E-06
0.748138427734375, -1.32598876953125E-06
0.74615478515625, -1.32537841796875E-06
0.744171142578125, -1.32293701171875E-06
0.7421875, -1.32080078125E-06
0.740203857421875, -1.318359375E-06
0.73822021484375, -1.314697265625E-06
0.736236572265625, -1.31134033203125E-06
0.7342529296875, -1.307373046875E-06
0.732269287109375, -1.3031005859375E-06
0.73028564453125, -1.29791259765625E-06
0.728302001953125, -1.29364013671875E-06
0.726318359375, -1.28814697265625E-06
0.724334716796875, -1.2835693359375E-06
0.72235107421875, -1.2774658203125E-06
0.720367431640625, -1.27197265625E-06
0.7183837890625, -1.265869140625E-06
0.716400146484375, -1.2603759765625E-06
0.71441650390625, -1.2542724609375E-06
0.712432861328125, -1.24847412109375E-06
0.71044921875, -1.24237060546875E-06
0.708465576171875, -1.236572265625E-06
0.70648193359375, -1.23046875E-06
0.704498291015625, -1.22467041015625E-06
0.7025146484375, -1.21826171875E-06
0.700531005859375, -1.212158203125E-06
0.69854736328125, -1.2060546875E-06
0.696563720703125, -1.199951171875E-06
0.694580078125, -1.1944580078125E-06
0.692596435546875, -1.18804931640625E-06
0.69061279296875, -1.18194580078125E-06
0.688629150390625, -1.17706298828125E-06
0.6866455078125, -1.17156982421875E-06
0.684661865234375, -1.165771484375E-06
0.68267822265625, -1.1602783203125E-06
0.680694580078125, -1.15478515625E-06
0.6787109375, -1.14959716796875E-06
0.676727294921875, -1.143798828125E-06
0.67474365234375, -1.1383056640625E-06
0.672760009765625, -1.1334228515625E-06
0.6707763671875, -1.12823486328125E-06
0.668792724609375, -1.12335205078125E-06
0.66680908203125, -1.1181640625E-06
0.664825439453125, -1.11297607421875E-06
0.662841796875, -1.10809326171875E-06
0.660858154296875, -1.10321044921875E-06
0.65887451171875, -1.09832763671875E-06
0.656890869140625, -1.09344482421875E-06
0.6549072265625, -1.0888671875E-06
0.652923583984375, -1.0845947265625E-06
0.65093994140625, -1.08001708984375E-06
0.648956298828125, -1.07513427734375E-06
0.64697265625, -1.07086181640625E-06
0.644989013671875, -1.06658935546875E-06
0.64300537109375, -1.06170654296875E-06
0.641021728515625, -1.05743408203125E-06
0.6390380859375, -1.05255126953125E-06
0.637054443359375, -1.04888916015625E-06
0.63507080078125, -1.04522705078125E-06
0.633087158203125, -1.04095458984375E-06
0.631103515625, -1.0369873046875E-06
0.629119873046875, -1.03302001953125E-06
0.62713623046875, -1.02874755859375E-06
0.625152587890625, -1.0247802734375E-06
0.6231689453125, -1.02142333984375E-06
0.621185302734375, -1.016845703125E-06
0.61920166015625, -1.01318359375E-06
0.617218017578125, -1.00982666015625E-06
0.615234375, -1.00616455078125E-06
0.613250732421875, -1.00250244140625E-06
0.61126708984375, -9.9945068359375E-07
0.609283447265625, -9.9578857421875E-07
0.6072998046875, -9.92431640625E-07
0.605316162109375, -9.8907470703125E-07
0.60333251953125, -9.8602294921875E-07
0.601348876953125, -9.820556640625E-07
0.599365234375, -9.7900390625E-07
0.601348876953125, -9.5489501953125E-07
0.60333251953125, -9.3536376953125E-07
0.605316162109375, -9.173583984375E-07
0.6072998046875, -9.0087890625E-07
0.609283447265625, -8.8531494140625E-07
0.61126708984375, -8.7066650390625E-07
0.613250732421875, -8.563232421875E-07
0.615234375, -8.428955078125E-07
0.617218017578125, -8.3038330078125E-07
0.61920166015625, -8.1787109375E-07
0.621185302734375, -8.062744140625E-07
0.6231689453125, -7.94677734375E-07
0.625152587890625, -7.830810546875E-07
0.62713623046875, -7.720947265625E-07
0.629119873046875, -7.611083984375E-07
0.631103515625, -7.501220703125E-07
0.633087158203125, -7.3974609375E-07
0.63507080078125, -7.293701171875E-07
0.637054443359375, -7.196044921875E-07
0.6390380859375, -7.0953369140625E-07
0.641021728515625, -7.0068359375E-07
0.64300537109375, -6.9061279296875E-07
0.644989013671875, -6.8145751953125E-07
0.64697265625, -6.7169189453125E-07
0.648956298828125, -6.62841796875E-07
0.65093994140625, -6.536865234375E-07
0.652923583984375, -6.4483642578125E-07
0.6549072265625, -6.3629150390625E-07
0.656890869140625, -6.2774658203125E-07
0.65887451171875, -6.1920166015625E-07
0.660858154296875, -6.109619140625E-07
0.662841796875, -6.0272216796875E-07
0.664825439453125, -5.94482421875E-07
0.66680908203125, -5.859375E-07
0.668792724609375, -5.780029296875E-07
0.6707763671875, -5.6976318359375E-07
0.672760009765625, -5.621337890625E-07
0.67474365234375, -5.5450439453125E-07
0.676727294921875, -5.4656982421875E-07
0.6787109375, -5.389404296875E-07
0.680694580078125, -5.316162109375E-07
0.68267822265625, -5.2459716796875E-07
0.684661865234375, -5.16357421875E-07
0.6866455078125, -5.09033203125E-07
0.688629150390625, -5.0140380859375E-07
0.69061279296875, -4.937744140625E-07
0.692596435546875, -4.87060546875E-07
0.694580078125, -4.8004150390625E-07
0.696563720703125, -4.7271728515625E-07
0.69854736328125, -4.6539306640625E-07
0.700531005859375, -4.591064453125E-07
0.7025146484375, -4.5220947265625E-07
0.704498291015625, -4.44976806640625E-07
0.70648193359375, -4.37713623046875E-07
0.708465576171875, -4.306640625E-07
0.71044921875, -4.2364501953125E-07
0.712432861328125, -4.16748046875E-07
0.71441650390625, -4.09881591796875E-07
0.716400146484375, -4.02984619140625E-07
0.7183837890625, -3.96270751953125E-07
0.720367431640625, -3.8934326171875E-07
0.72235107421875, -3.822021484375E-07
0.724334716796875, -3.74969482421875E-07
0.726318359375, -3.680419921875E-07
0.728302001953125, -3.612060546875E-07
0.73028564453125, -3.54278564453125E-07
0.732269287109375, -3.4722900390625E-07
0.7342529296875, -3.4027099609375E-07
0.736236572265625, -3.33038330078125E-07
0.73822021484375, -3.26263427734375E-07
0.740203857421875, -3.1884765625E-07
0.7421875, -3.12042236328125E-07
0.744171142578125, -3.04290771484375E-07
0.74615478515625, -2.97271728515625E-07
0.748138427734375, -2.900390625E-07
0.7501220703125, -2.82684326171875E-07
0.752105712890625, -2.755126953125E-07
0.75408935546875, -2.68035888671875E-07
0.756072998046875, -2.607421875E-07
0.758056640625, -2.528076171875E-07
0.760040283203125, -2.45697021484375E-07
0.76202392578125, -2.37823486328125E-07
0.764007568359375, -2.2998046875E-07
0.7659912109375, -2.22137451171875E-07
0.767974853515625, -2.14630126953125E-07
0.76995849609375, -2.06695556640625E-07
0.771942138671875, -1.9854736328125E-07
0.77392578125, -1.9061279296875E-07
0.775909423828125, -1.822509765625E-07
0.77789306640625, -1.74285888671875E-07
0.779876708984375, -1.65740966796875E-07
0.7818603515625, -1.57012939453125E-07
0.783843994140625, -1.4862060546875E-07
0.78582763671875, -1.40228271484375E-07
0.787811279296875, -1.31195068359375E-07
0.789794921875, -1.22283935546875E-07
0.791778564453125, -1.13189697265625E-07
0.79376220703125, -1.04217529296875E-07
0.795745849609375, -9.4818115234375E-08
0.7977294921875, -8.50830078125E-08
0.799713134765625, -7.5225830078125E-08
0.80169677734375, -6.5277099609375E-08
0.803680419921875, -5.511474609375E-08
0.8056640625, -4.49310302734375E-08
0.807647705078125, -3.4527587890625E-08
0.80963134765625, -2.4029541015625E-08
0.811614990234375, -1.28082275390625E-08
0.8135986328125, -1.7791748046875E-09
0.815582275390625, 9.661865234375E-09
0.81756591796875, 2.149658203125E-08
0.819549560546875, 3.32366943359375E-08
0.821533203125, 4.50439453125E-08
0.823516845703125, 5.7769775390625E-08
0.82550048828125, 7.01904296875E-08
0.827484130859375, 8.319091796875E-08
0.8294677734375, 9.6466064453125E-08
0.831451416015625, 1.0980224609375E-07
0.83343505859375, 1.2359619140625E-07
0.835418701171875, 1.37939453125E-07
0.83740234375, 1.52099609375E-07
0.839385986328125, 1.6656494140625E-07
0.84136962890625, 1.815185546875E-07
0.843353271484375, 1.9622802734375E-07
0.8453369140625, 2.1124267578125E-07
0.847320556640625, 2.27020263671875E-07
0.84930419921875, 2.421875E-07
0.851287841796875, 2.5836181640625E-07
0.853271484375, 2.74871826171875E-07
0.855255126953125, 2.90924072265625E-07
0.85723876953125, 3.0755615234375E-07
0.859222412109375, 3.243408203125E-07
0.8612060546875, 3.4088134765625E-07
0.863189697265625, 3.5821533203125E-07
0.86517333984375, 3.75457763671875E-07
0.867156982421875, 3.9276123046875E-07
0.869140625, 4.1058349609375E-07
0.871124267578125, 4.28375244140625E-07
0.87310791015625, 4.468994140625E-07
0.875091552734375, 4.649658203125E-07
0.8770751953125, 4.83734130859375E-07
0.879058837890625, 5.0238037109375E-07
0.88104248046875, 5.20965576171875E-07
0.883026123046875, 5.40191650390625E-07
0.885009765625, 5.5926513671875E-07
0.886993408203125, 5.7879638671875E-07
0.88897705078125, 5.98724365234375E-07
0.890960693359375, 6.18743896484375E-07
0.8929443359375, 6.3995361328125E-07
0.894927978515625, 6.597900390625E-07
0.89691162109375, 6.805419921875E-07
0.898895263671875, 7.0159912109375E-07
0.90087890625, 7.2265625E-07
0.902862548828125, 7.4432373046875E-07
0.90484619140625, 7.6568603515625E-07
0.906829833984375, 7.8826904296875E-07
0.9088134765625, 8.1085205078125E-07
0.910797119140625, 8.33740234375E-07
0.91278076171875, 8.5693359375E-07
0.914764404296875, 8.80126953125E-07
0.916748046875, 9.039306640625E-07
0.918731689453125, 9.2864990234375E-07
0.92071533203125, 9.521484375E-07
0.922698974609375, 9.7747802734375E-07
0.9246826171875, 1.002197265625E-06
0.926666259765625, 1.02752685546875E-06
0.92864990234375, 1.05438232421875E-06
0.930633544921875, 1.080322265625E-06
0.9326171875, 1.10565185546875E-06
0.934600830078125, 1.1322021484375E-06
0.93658447265625, 1.158447265625E-06
0.938568115234375, 1.18621826171875E-06
0.9405517578125, 1.2127685546875E-06
0.942535400390625, 1.240234375E-06
0.94451904296875, 1.26739501953125E-06
0.946502685546875, 1.295166015625E-06
0.948486328125, 1.3226318359375E-06
0.950469970703125, 1.34979248046875E-06
0.95245361328125, 1.37725830078125E-06
0.954437255859375, 1.4044189453125E-06
0.9564208984375, 1.431884765625E-06
0.958404541015625, 1.4593505859375E-06
0.96038818359375, 1.485595703125E-06
0.962371826171875, 1.51214599609375E-06
0.96435546875, 1.53778076171875E-06
0.966339111328125, 1.56585693359375E-06
0.96832275390625, 1.59027099609375E-06
0.970306396484375, 1.61651611328125E-06
0.9722900390625, 1.64154052734375E-06
0.974273681640625, 1.663818359375E-06
0.97625732421875, 1.68792724609375E-06
0.978240966796875, 1.7108154296875E-06
0.980224609375, 1.73309326171875E-06
0.982208251953125, 1.75537109375E-06
0.98419189453125, 1.77734375E-06
0.986175537109375, 1.7974853515625E-06
0.9881591796875, 1.81884765625E-06
0.990142822265625, 1.83685302734375E-06
0.99212646484375, 1.85516357421875E-06
0.994110107421875, 1.8731689453125E-06
0.99609375, 1.8890380859375E-06
0.998077392578125, 1.90582275390625E-06
1.00006103515625, 1.92169189453125E-06
1.00204467773438, 1.93695068359375E-06
1.0040283203125, 1.95098876953125E-06
1.00601196289063, 1.96533203125E-06
1.00799560546875, 1.97845458984375E-06
1.00997924804688, 1.99005126953125E-06
1.011962890625, 2.00164794921875E-06
1.01394653320313, 2.012939453125E-06
1.01593017578125, 2.02362060546875E-06
1.01791381835938, 2.03369140625E-06
1.0198974609375, 2.04376220703125E-06
1.02188110351563, 2.05352783203125E-06
1.02386474609375, 2.06268310546875E-06
1.02584838867188, 2.07183837890625E-06
1.02783203125, 2.08251953125E-06
1.02981567382813, 2.08984375E-06
1.03179931640625, 2.098388671875E-06
1.03378295898438, 2.1063232421875E-06
1.0357666015625, 2.115478515625E-06
1.03775024414063, 2.12432861328125E-06
1.03973388671875, 2.13287353515625E-06
1.04171752929688, 2.14202880859375E-06
1.043701171875, 2.1502685546875E-06
1.04568481445313, 2.15911865234375E-06
1.04766845703125, 2.1685791015625E-06
1.04965209960938, 2.177734375E-06
1.0516357421875, 2.18719482421875E-06
1.05361938476563, 2.19696044921875E-06
1.05560302734375, 2.20703125E-06
1.05758666992188, 2.21832275390625E-06
1.0595703125, 2.22869873046875E-06
1.06155395507813, 2.24029541015625E-06
1.06353759765625, 2.25250244140625E-06
1.06552124023438, 2.26531982421875E-06
1.0675048828125, 2.2772216796875E-06
1.06948852539063, 2.2906494140625E-06
1.07147216796875, 2.3040771484375E-06
1.07345581054688, 2.31842041015625E-06
1.075439453125, 2.3333740234375E-06
1.07742309570313, 2.34832763671875E-06
1.07940673828125, 2.36480712890625E-06
1.08139038085938, 2.3809814453125E-06
1.0833740234375, 2.39715576171875E-06
1.08535766601563, 2.41424560546875E-06
1.08734130859375, 2.431640625E-06
1.08932495117188, 2.45025634765625E-06
1.09130859375, 2.4676513671875E-06
1.09329223632813, 2.48748779296875E-06
1.09527587890625, 2.5067138671875E-06
1.09725952148438, 2.52685546875E-06
1.0992431640625, 2.54608154296875E-06
1.10122680664063, 2.56622314453125E-06
1.10321044921875, 2.58697509765625E-06
1.10519409179688, 2.60650634765625E-06
1.107177734375, 2.6275634765625E-06
1.10916137695313, 2.64862060546875E-06
1.11114501953125, 2.6690673828125E-06
1.11312866210938, 2.69012451171875E-06
1.1151123046875, 2.71087646484375E-06
1.11709594726563, 2.73101806640625E-06
1.11907958984375, 2.75177001953125E-06
1.12106323242188, 2.77252197265625E-06
1.123046875, 2.791748046875E-06
1.12503051757813, 2.8106689453125E-06
1.12701416015625, 2.82989501953125E-06
1.12899780273438, 2.84881591796875E-06
1.1309814453125, 2.86529541015625E-06
1.13296508789063, 2.88360595703125E-06
1.13494873046875, 2.90008544921875E-06
1.13693237304688, 2.9168701171875E-06
1.138916015625, 2.93304443359375E-06
1.14089965820313, 2.9473876953125E-06
1.14288330078125, 2.96173095703125E-06
1.14486694335938, 2.97454833984375E-06
1.1468505859375, 2.987060546875E-06
1.14883422851563, 2.999267578125E-06
1.15081787109375, 3.01116943359375E-06
1.15280151367188, 3.02032470703125E-06
1.15478515625, 3.0303955078125E-06
1.15676879882813, 3.038330078125E-06
1.15875244140625, 3.04595947265625E-06
1.16073608398438, 3.052978515625E-06
1.1627197265625, 3.05908203125E-06
1.16470336914063, 3.0645751953125E-06
1.16668701171875, 3.06793212890625E-06
1.16867065429688, 3.0718994140625E-06
1.170654296875, 3.07342529296875E-06
1.17263793945313, 3.07586669921875E-06
1.17462158203125, 3.07708740234375E-06
1.17660522460938, 3.0780029296875E-06
1.1785888671875, 3.07647705078125E-06
1.18057250976563, 3.07525634765625E-06
1.18255615234375, 3.0731201171875E-06
1.18453979492188, 3.07098388671875E-06
1.1865234375, 3.067626953125E-06
1.18850708007813, 3.06488037109375E-06
1.19049072265625, 3.05938720703125E-06
1.19247436523438, 3.0548095703125E-06
1.1944580078125, 3.04962158203125E-06
1.19644165039063, 3.04412841796875E-06
1.19842529296875, 3.0377197265625E-06
1.20040893554688, 3.0316162109375E-06
1.202392578125, 3.02398681640625E-06
1.20437622070313, 3.01605224609375E-06
1.20635986328125, 3.0084228515625E-06
1.20834350585938, 3.00018310546875E-06
1.2103271484375, 2.99102783203125E-06
1.21231079101563, 2.98248291015625E-06
1.21429443359375, 2.9730224609375E-06
1.21627807617188, 2.96356201171875E-06
1.21826171875, 2.95379638671875E-06
1.22024536132813, 2.9443359375E-06
1.22222900390625, 2.93487548828125E-06
1.22421264648438, 2.9241943359375E-06
1.2261962890625, 2.9144287109375E-06
1.22817993164063, 2.904052734375E-06
1.23016357421875, 2.8936767578125E-06
1.23214721679688, 2.8826904296875E-06
1.234130859375, 2.8717041015625E-06
1.23611450195313, 2.86163330078125E-06
1.23809814453125, 2.850341796875E-06
1.24008178710938, 2.83935546875E-06
1.2420654296875, 2.82867431640625E-06
1.24404907226563, 2.81768798828125E-06
1.24603271484375, 2.80670166015625E-06
1.24801635742188, 2.7960205078125E-06
1.25, 2.7850341796875E-06
1.25198364257813, 2.774658203125E-06
1.25396728515625, 2.76336669921875E-06
1.25595092773438, 2.7520751953125E-06
1.2579345703125, 2.74169921875E-06
1.25991821289063, 2.7313232421875E-06
1.26190185546875, 2.720947265625E-06
1.26388549804688, 2.71026611328125E-06
1.265869140625, 2.70050048828125E-06
1.26785278320313, 2.6898193359375E-06
1.26983642578125, 2.67974853515625E-06
1.27182006835938, 2.6690673828125E-06
1.2738037109375, 2.659912109375E-06
1.27578735351563, 2.64984130859375E-06
1.27777099609375, 2.64007568359375E-06
1.27975463867188, 2.630615234375E-06
1.28173828125, 2.62115478515625E-06
1.28372192382813, 2.6123046875E-06
1.28570556640625, 2.6031494140625E-06
1.28768920898438, 2.59429931640625E-06
1.2896728515625, 2.58575439453125E-06
1.29165649414063, 2.57659912109375E-06
1.29364013671875, 2.56866455078125E-06
1.29562377929688, 2.56011962890625E-06
1.297607421875, 2.552490234375E-06
1.29959106445313, 2.5439453125E-06
1.30157470703125, 2.5360107421875E-06
1.30355834960938, 2.52838134765625E-06
1.3055419921875, 2.52105712890625E-06
1.30752563476563, 2.513427734375E-06
1.30950927734375, 2.5067138671875E-06
1.31149291992188, 2.5E-06
1.3134765625, 2.4932861328125E-06
1.31546020507813, 2.48687744140625E-06
1.31744384765625, 2.48077392578125E-06
1.31942749023438, 2.474365234375E-06
1.3214111328125, 2.46856689453125E-06
1.32339477539063, 2.46246337890625E-06
1.32537841796875, 2.4566650390625E-06
1.32736206054688, 2.45086669921875E-06
1.329345703125, 2.4462890625E-06
1.33132934570313, 2.44049072265625E-06
1.33331298828125, 2.4359130859375E-06
1.33529663085938, 2.430419921875E-06
1.3372802734375, 2.4261474609375E-06
1.33926391601563, 2.42218017578125E-06
1.34124755859375, 2.418212890625E-06
1.34323120117188, 2.4139404296875E-06
1.34521484375, 2.40997314453125E-06
1.34719848632813, 2.406005859375E-06
1.34918212890625, 2.40234375E-06
1.35116577148438, 2.39898681640625E-06
1.3531494140625, 2.3956298828125E-06
1.35513305664063, 2.392578125E-06
1.35711669921875, 2.39044189453125E-06
1.35910034179688, 2.386474609375E-06
1.361083984375, 2.38372802734375E-06
1.36306762695313, 2.38189697265625E-06
1.36505126953125, 2.379150390625E-06
1.36703491210938, 2.37640380859375E-06
1.3690185546875, 2.37457275390625E-06
1.37100219726563, 2.3724365234375E-06
1.37298583984375, 2.37091064453125E-06
1.37496948242188, 2.369384765625E-06
1.376953125, 2.36724853515625E-06
1.37893676757813, 2.36602783203125E-06
1.38092041015625, 2.36480712890625E-06
1.38290405273438, 2.36358642578125E-06
1.3848876953125, 2.36236572265625E-06
1.38687133789063, 2.36114501953125E-06
1.38885498046875, 2.36053466796875E-06
1.39083862304688, 2.3602294921875E-06
1.392822265625, 2.359619140625E-06
1.39480590820313, 2.3590087890625E-06
1.39678955078125, 2.3590087890625E-06
1.39877319335938, 2.3583984375E-06
1.4007568359375, 2.35870361328125E-06
1.39877319335938, 2.3138427734375E-06
1.39678955078125, 2.27752685546875E-06
1.39480590820313, 2.2454833984375E-06
1.392822265625, 2.21466064453125E-06
1.39083862304688, 2.18719482421875E-06
1.38885498046875, 2.16156005859375E-06
1.38687133789063, 2.1356201171875E-06
1.3848876953125, 2.11212158203125E-06
1.38290405273438, 2.08953857421875E-06
1.38092041015625, 2.06787109375E-06
1.37893676757813, 2.04681396484375E-06
1.376953125, 2.0263671875E-06
1.37496948242188, 2.0074462890625E-06
1.37298583984375, 1.98883056640625E-06
1.37100219726563, 1.97113037109375E-06
1.3690185546875, 1.9537353515625E-06
1.36703491210938, 1.93603515625E-06
1.36505126953125, 1.91986083984375E-06
1.36306762695313, 1.90460205078125E-06
1.361083984375, 1.88934326171875E-06
1.35910034179688, 1.8731689453125E-06
1.35711669921875, 1.8585205078125E-06
1.35513305664063, 1.84417724609375E-06
1.3531494140625, 1.829833984375E-06
1.35116577148438, 1.81640625E-06
1.34918212890625, 1.80267333984375E-06
1.34719848632813, 1.78985595703125E-06
1.34521484375, 1.7767333984375E-06
1.34323120117188, 1.76422119140625E-06
1.34124755859375, 1.75140380859375E-06
1.33926391601563, 1.73919677734375E-06
1.3372802734375, 1.72698974609375E-06
1.33529663085938, 1.71600341796875E-06
1.33331298828125, 1.70440673828125E-06
1.33132934570313, 1.6925048828125E-06
1.329345703125, 1.68121337890625E-06
1.32736206054688, 1.671142578125E-06
1.32537841796875, 1.6595458984375E-06
1.32339477539063, 1.6485595703125E-06
1.3214111328125, 1.63848876953125E-06
1.31942749023438, 1.6278076171875E-06
1.31744384765625, 1.61712646484375E-06
1.31546020507813, 1.60736083984375E-06
1.3134765625, 1.59698486328125E-06
1.31149291992188, 1.5863037109375E-06
1.30950927734375, 1.5765380859375E-06
1.30752563476563, 1.5667724609375E-06
1.3055419921875, 1.556396484375E-06
1.30355834960938, 1.54632568359375E-06
1.30157470703125, 1.53717041015625E-06
1.29959106445313, 1.52679443359375E-06
1.297607421875, 1.51702880859375E-06
1.29562377929688, 1.50726318359375E-06
1.29364013671875, 1.49810791015625E-06
1.29165649414063, 1.48773193359375E-06
1.2896728515625, 1.47857666015625E-06
1.28768920898438, 1.46820068359375E-06
1.28570556640625, 1.458740234375E-06
1.28372192382813, 1.44866943359375E-06
1.28173828125, 1.439208984375E-06
1.27975463867188, 1.42974853515625E-06
1.27777099609375, 1.41998291015625E-06
1.27578735351563, 1.41082763671875E-06
1.2738037109375, 1.40045166015625E-06
1.27182006835938, 1.390380859375E-06
1.26983642578125, 1.380615234375E-06
1.26785278320313, 1.37115478515625E-06
1.265869140625, 1.361083984375E-06
1.26388549804688, 1.3507080078125E-06
1.26190185546875, 1.3409423828125E-06
1.25991821289063, 1.33056640625E-06
1.2579345703125, 1.3201904296875E-06
1.25595092773438, 1.3104248046875E-06
1.25396728515625, 1.300048828125E-06
1.25198364257813, 1.28936767578125E-06
1.25, 1.27899169921875E-06
1.24801635742188, 1.268310546875E-06
1.24603271484375, 1.25762939453125E-06
1.24404907226563, 1.246337890625E-06
1.2420654296875, 1.2359619140625E-06
1.24008178710938, 1.2255859375E-06
1.23809814453125, 1.21429443359375E-06
1.23611450195313, 1.2030029296875E-06
1.234130859375, 1.19171142578125E-06
1.23214721679688, 1.18072509765625E-06
1.23016357421875, 1.16943359375E-06
1.22817993164063, 1.15814208984375E-06
1.2261962890625, 1.14654541015625E-06
1.22421264648438, 1.13525390625E-06
1.22222900390625, 1.12335205078125E-06
1.22024536132813, 1.1114501953125E-06
1.21826171875, 1.099853515625E-06
1.21627807617188, 1.08734130859375E-06
1.21429443359375, 1.07574462890625E-06
1.21231079101563, 1.0638427734375E-06
1.2103271484375, 1.0516357421875E-06
1.20834350585938, 1.0394287109375E-06
1.20635986328125, 1.02783203125E-06
1.20437622070313, 1.0150146484375E-06
1.202392578125, 1.00311279296875E-06
1.20040893554688, 9.9029541015625E-07
1.19842529296875, 9.77783203125E-07
1.19644165039063, 9.649658203125E-07
1.1944580078125, 9.527587890625E-07
1.19247436523438, 9.393310546875E-07
1.19049072265625, 9.271240234375E-07
1.18850708007813, 9.1461181640625E-07
1.1865234375, 9.0118408203125E-07
1.18453979492188, 8.88671875E-07
1.18255615234375, 8.7493896484375E-07
1.18057250976563, 8.624267578125E-07
1.1785888671875, 8.49609375E-07
1.17660522460938, 8.367919921875E-07
1.17462158203125, 8.23974609375E-07
1.17263793945313, 8.1024169921875E-07
1.170654296875, 7.97119140625E-07
1.16867065429688, 7.8399658203125E-07
1.16668701171875, 7.708740234375E-07
1.16470336914063, 7.58056640625E-07
1.1627197265625, 7.4493408203125E-07
1.16073608398438, 7.318115234375E-07
1.15875244140625, 7.1807861328125E-07
1.15676879882813, 7.0465087890625E-07
1.15478515625, 6.9183349609375E-07
1.15280151367188, 6.787109375E-07
1.15081787109375, 6.65283203125E-07
1.14883422851563, 6.5216064453125E-07
1.1468505859375, 6.3873291015625E-07
1.14486694335938, 6.256103515625E-07
1.14288330078125, 6.1279296875E-07
1.14089965820313, 5.99365234375E-07
1.138916015625, 5.8624267578125E-07
1.13693237304688, 5.7281494140625E-07
1.13494873046875, 5.5938720703125E-07
1.13296508789063, 5.46875E-07
1.1309814453125, 5.3314208984375E-07
1.12899780273438, 5.2093505859375E-07
1.12701416015625, 5.078125E-07
1.12503051757813, 4.94384765625E-07
1.123046875, 4.8126220703125E-07
1.12106323242188, 4.6844482421875E-07
1.11907958984375, 4.54742431640625E-07
1.11709594726563, 4.420166015625E-07
1.1151123046875, 4.27825927734375E-07
1.11312866210938, 4.146728515625E-07
1.11114501953125, 4.01580810546875E-07
1.10916137695313, 3.88427734375E-07
1.107177734375, 3.75213623046875E-07
1.10519409179688, 3.62396240234375E-07
1.10321044921875, 3.4942626953125E-07
1.10122680664063, 3.36273193359375E-07
1.0992431640625, 3.23028564453125E-07
1.09725952148438, 3.09967041015625E-07
1.09527587890625, 2.96844482421875E-07
1.09329223632813, 2.8302001953125E-07
1.09130859375, 2.7020263671875E-07
1.08932495117188, 2.572021484375E-07
1.08734130859375, 2.4395751953125E-07
1.08535766601563, 2.3089599609375E-07
1.0833740234375, 2.18170166015625E-07
1.08139038085938, 2.04376220703125E-07
1.07940673828125, 1.91314697265625E-07
1.07742309570313, 1.78131103515625E-07
1.075439453125, 1.646728515625E-07
1.07345581054688, 1.5093994140625E-07
1.07147216796875, 1.3787841796875E-07
1.06948852539063, 1.2445068359375E-07
1.0675048828125, 1.1151123046875E-07
1.06552124023438, 9.759521484375E-08
1.06353759765625, 8.4228515625E-08
1.06155395507813, 7.1380615234375E-08
1.0595703125, 5.7342529296875E-08
1.05758666992188, 4.3548583984375E-08
1.05560302734375, 3.06488037109375E-08
1.05361938476563, 1.76116943359375E-08
1.0516357421875, 4.6051025390625E-09
1.04965209960938, -8.5968017578125E-09
1.04766845703125, -2.176513671875E-08
1.04568481445313, -3.5260009765625E-08
1.043701171875, -4.852294921875E-08
1.04171752929688, -6.11572265625E-08
1.03973388671875, -7.421875E-08
1.03775024414063, -8.67919921875E-08
1.0357666015625, -9.94873046875E-08
1.03378295898438, -1.1199951171875E-07
1.03179931640625, -1.246337890625E-07
1.02981567382813, -1.36993408203125E-07
1.02783203125, -1.49261474609375E-07
1.02584838867188, -1.61773681640625E-07
1.02386474609375, -1.73065185546875E-07
1.02188110351563, -1.8505859375E-07
1.0198974609375, -1.96075439453125E-07
1.01791381835938, -2.0745849609375E-07
1.01593017578125, -2.1893310546875E-07
1.01394653320313, -2.29461669921875E-07
1.011962890625, -2.392578125E-07
1.00997924804688, -2.50213623046875E-07
1.00799560546875, -2.60406494140625E-07
1.00601196289063, -2.70599365234375E-07
1.0040283203125, -2.80181884765625E-07
1.00204467773438, -2.899169921875E-07
1.00006103515625, -2.9925537109375E-07
##END=$$ End of the data block
