##TITLE=Spectrum
##JCAMP-DX=5.00 $$ chemotion-converter-app (1.7.0)
##DATA TYPE=SIZE EXCLUSION CHROMATOGRAPHY
##DATA CLASS=XYPOINTS
##ORIGIN=
##OWNER=
##XUNITS=G/MOL
##YUNITS=ARBITRARY UNITS
##LABEL=Vial   1: MS170_crude - 1
##COMMENTS=X:\Marvin Subarew\PAETMC Thiol-ene\MS170\2022-02-04 MS170_crudefull.TXT
##DETEC1=I2: RI Detector 1, RI Signal
##DETEC2=I2: UV Detector 1, UV Signal
##DETEC3=I2: Pump 1, Sample Pump Pressure
##COL1=PSS SDV 5µm
##COL2=PSS SDV 5µm
##COL3=PSS SDV 5µm
##IN_VOL=50.000
##ELUENT=THF
##FLOW=1.000
##TEMPERATURE=35.000
##DATE=04/02/22
##TIME=11:40:47
##SOFTWARE=WINGPC
##VERSION=8#1
##OPERATOR=itcp-akt
##D=3.974E+0
##MZ1=2.779E+4
##MN=1.856E+3
##MP=6.903E+2
##MV=0.000E+0
##MW=7.377E+3
##MZ=2.171E+4
##VP=2.807E+1
##N=0.000E+0
##FIRSTX=5.79532E+2
##LASTX=5.25759E+4
##MINX=579.532
##MAXX=52575.9
##MINY=0.000110037
##MAXY=1.87959
##NPOINTS=483
##FIRSTY=8.39413E-2
##XUNITS=G/MOL
##YUNITS=ARBITRARY UNITS
##XYPOINTS=(XY..XY)
5.79532E+2, 8.39413E-2
5.84977E+2, 1.17333E-1
5.90474E+2, 1.55445E-1
5.96022E+2, 2.06182E-1
6.01622E+2, 2.70935E-1
6.07275E+2, 3.44140E-1
6.12981E+2, 4.33526E-1
6.18741E+2, 5.30626E-1
6.24555E+2, 6.37809E-1
6.30423E+2, 7.62392E-1
6.36347E+2, 8.93093E-1
6.42326E+2, 1.03815E+0
6.48361E+2, 1.18900E+0
6.54453E+2, 1.33677E+0
6.60603E+2, 1.47765E+0
6.66810E+2, 1.60723E+0
6.73075E+2, 1.72153E+0
6.79400E+2, 1.80698E+0
6.85783E+2, 1.86037E+0
6.92227E+2, 1.87959E+0
6.98731E+2, 1.86107E+0
7.05297E+2, 1.80489E+0
7.11924E+2, 1.71821E+0
7.18613E+2, 1.60638E+0
7.25365E+2, 1.47409E+0
7.32181E+2, 1.33515E+0
7.39060E+2, 1.19165E+0
7.46005E+2, 1.04580E+0
7.53014E+2, 9.07333E-1
7.60090E+2, 7.76141E-1
7.67232E+2, 6.56396E-1
7.74441E+2, 5.51619E-1
7.81717E+2, 4.60200E-1
7.89063E+2, 3.81484E-1
7.96477E+2, 3.12714E-1
8.03961E+2, 2.54522E-1
8.11515E+2, 2.07507E-1
8.19140E+2, 1.65154E-1
8.26836E+2, 1.31836E-1
8.34606E+2, 1.10002E-1
8.42448E+2, 8.62832E-2
8.50363E+2, 6.75946E-2
8.58354E+2, 5.37795E-2
8.66419E+2, 4.60588E-2
8.74560E+2, 4.01004E-2
8.82777E+2, 4.05253E-2
8.91072E+2, 4.03053E-2
8.99445E+2, 3.85027E-2
9.07896E+2, 4.32799E-2
9.16427E+2, 4.38160E-2
9.25037E+2, 4.95195E-2
9.33729E+2, 5.78960E-2
9.42503E+2, 6.25725E-2
9.51359E+2, 7.12272E-2
9.60298E+2, 7.69629E-2
9.69321E+2, 9.24999E-2
9.78429E+2, 9.55933E-2
9.87622E+2, 1.04332E-1
9.96902E+2, 1.17002E-1
1.00627E+3, 1.28742E-1
1.01572E+3, 1.43461E-1
1.02527E+3, 1.60674E-1
1.03490E+3, 1.73789E-1
1.04463E+3, 1.88725E-1
1.05444E+3, 2.08931E-1
1.06435E+3, 2.25473E-1
1.07435E+3, 2.43883E-1
1.08444E+3, 2.60067E-1
1.09463E+3, 2.77543E-1
1.10492E+3, 2.96631E-1
1.11530E+3, 3.27820E-1
1.12578E+3, 3.55147E-1
1.13636E+3, 3.79403E-1
1.14704E+3, 4.06779E-1
1.15781E+3, 4.33581E-1
1.16869E+3, 4.66691E-1
1.17967E+3, 4.98258E-1
1.19076E+3, 5.30933E-1
1.20195E+3, 5.68881E-1
1.21324E+3, 6.01229E-1
1.22464E+3, 6.39736E-1
1.23615E+3, 6.78016E-1
1.24776E+3, 7.18264E-1
1.25949E+3, 7.62162E-1
1.27132E+3, 7.97860E-1
1.28327E+3, 8.38623E-1
1.29532E+3, 8.84522E-1
1.30749E+3, 9.28090E-1
1.31978E+3, 9.67630E-1
1.33218E+3, 1.00926E+0
1.34470E+3, 1.05288E+0
1.35733E+3, 1.09292E+0
1.37009E+3, 1.13708E+0
1.38296E+3, 1.17099E+0
1.39595E+3, 1.21467E+0
1.40907E+3, 1.25353E+0
1.42231E+3, 1.29469E+0
1.43568E+3, 1.33441E+0
1.44917E+3, 1.36950E+0
1.46278E+3, 1.40010E+0
1.47653E+3, 1.43616E+0
1.49040E+3, 1.47548E+0
1.50440E+3, 1.50736E+0
1.51854E+3, 1.54692E+0
1.53281E+3, 1.57853E+0
1.54721E+3, 1.61030E+0
1.56175E+3, 1.63669E+0
1.57642E+3, 1.65913E+0
1.59123E+3, 1.69293E+0
1.60619E+3, 1.71166E+0
1.62128E+3, 1.73518E+0
1.63651E+3, 1.75757E+0
1.65189E+3, 1.77460E+0
1.66741E+3, 1.78991E+0
1.68308E+3, 1.80337E+0
1.69889E+3, 1.81225E+0
1.71485E+3, 1.81812E+0
1.73097E+3, 1.82568E+0
1.74723E+3, 1.82599E+0
1.76365E+3, 1.82224E+0
1.78022E+3, 1.81425E+0
1.79695E+3, 1.80334E+0
1.81383E+3, 1.78493E+0
1.83088E+3, 1.77926E+0
1.84808E+3, 1.75626E+0
1.86544E+3, 1.73725E+0
1.88297E+3, 1.71001E+0
1.90066E+3, 1.68573E+0
1.91852E+3, 1.66299E+0
1.93655E+3, 1.62867E+0
1.95475E+3, 1.59663E+0
1.97311E+3, 1.56077E+0
1.99165E+3, 1.52316E+0
2.01037E+3, 1.48657E+0
2.02926E+3, 1.44588E+0
2.04832E+3, 1.39973E+0
2.06757E+3, 1.36544E+0
2.08700E+3, 1.32173E+0
2.10661E+3, 1.28271E+0
2.12640E+3, 1.24100E+0
2.14638E+3, 1.19547E+0
2.16655E+3, 1.14877E+0
2.18691E+3, 1.10846E+0
2.20745E+3, 1.06995E+0
2.22820E+3, 1.03066E+0
2.24913E+3, 9.92181E-1
2.27026E+3, 9.59376E-1
2.29160E+3, 9.19244E-1
2.31313E+3, 8.84523E-1
2.33486E+3, 8.50089E-1
2.35680E+3, 8.21268E-1
2.37895E+3, 7.89011E-1
2.40130E+3, 7.68260E-1
2.42386E+3, 7.37556E-1
2.44664E+3, 7.11597E-1
2.46963E+3, 6.92737E-1
2.49283E+3, 6.74098E-1
2.51625E+3, 6.53400E-1
2.53990E+3, 6.38912E-1
2.56376E+3, 6.23193E-1
2.58785E+3, 6.14304E-1
2.61217E+3, 6.05347E-1
2.63671E+3, 5.97990E-1
2.66149E+3, 5.92851E-1
2.68649E+3, 5.96126E-1
2.71174E+3, 5.96359E-1
2.73722E+3, 5.90644E-1
2.76294E+3, 5.93869E-1
2.78890E+3, 5.94981E-1
2.81510E+3, 6.02853E-1
2.84155E+3, 6.13242E-1
2.86825E+3, 6.24087E-1
2.89520E+3, 6.32966E-1
2.92241E+3, 6.46016E-1
2.94987E+3, 6.57606E-1
2.97758E+3, 6.69490E-1
3.00556E+3, 6.84707E-1
3.03380E+3, 6.89963E-1
3.06231E+3, 7.04103E-1
3.09108E+3, 7.14051E-1
3.12013E+3, 7.25088E-1
3.14944E+3, 7.39177E-1
3.17904E+3, 7.48003E-1
3.20891E+3, 7.58818E-1
3.23906E+3, 7.65217E-1
3.26949E+3, 7.73958E-1
3.30021E+3, 7.76888E-1
3.33122E+3, 7.82004E-1
3.36252E+3, 7.81667E-1
3.39412E+3, 7.79150E-1
3.42601E+3, 7.76734E-1
3.45820E+3, 7.71635E-1
3.49069E+3, 7.70455E-1
3.52349E+3, 7.62320E-1
3.55660E+3, 7.51465E-1
3.59002E+3, 7.40405E-1
3.62375E+3, 7.25219E-1
3.65780E+3, 7.07175E-1
3.69217E+3, 6.93463E-1
3.72686E+3, 6.74103E-1
3.76188E+3, 6.53947E-1
3.79723E+3, 6.35866E-1
3.83291E+3, 6.14472E-1
3.86892E+3, 5.87600E-1
3.90527E+3, 5.65031E-1
3.94197E+3, 5.42610E-1
3.97901E+3, 5.16742E-1
4.01640E+3, 4.95314E-1
4.05413E+3, 4.71153E-1
4.09223E+3, 4.45296E-1
4.13068E+3, 4.25214E-1
4.16949E+3, 3.97833E-1
4.20867E+3, 3.70782E-1
4.24821E+3, 3.48484E-1
4.28813E+3, 3.27188E-1
4.32842E+3, 3.07959E-1
4.36909E+3, 2.90118E-1
4.41014E+3, 2.71215E-1
4.45158E+3, 2.54045E-1
4.49341E+3, 2.37609E-1
4.53563E+3, 2.18726E-1
4.57825E+3, 2.05186E-1
4.62127E+3, 1.92639E-1
4.66469E+3, 1.80935E-1
4.70852E+3, 1.65337E-1
4.75276E+3, 1.55388E-1
4.79742E+3, 1.42380E-1
4.84250E+3, 1.32183E-1
4.88800E+3, 1.26837E-1
4.93392E+3, 1.18335E-1
4.98028E+3, 1.14544E-1
5.02708E+3, 1.08026E-1
5.07431E+3, 1.02844E-1
5.12199E+3, 9.69623E-2
5.17012E+3, 9.03099E-2
5.21870E+3, 8.14443E-2
5.26774E+3, 7.92836E-2
5.31723E+3, 7.52425E-2
5.36719E+3, 6.80089E-2
5.41762E+3, 6.42867E-2
5.46853E+3, 6.26868E-2
5.51991E+3, 5.88737E-2
5.57178E+3, 5.34755E-2
5.62413E+3, 4.62483E-2
5.67698E+3, 4.91236E-2
5.73032E+3, 4.28590E-2
5.78416E+3, 3.97232E-2
5.83851E+3, 3.72543E-2
5.89337E+3, 3.02255E-2
5.94874E+3, 3.22104E-2
6.00464E+3, 3.37372E-2
6.06106E+3, 3.02630E-2
6.11801E+3, 2.61067E-2
6.17550E+3, 2.32054E-2
6.23352E+3, 1.98112E-2
6.29209E+3, 2.02464E-2
6.35121E+3, 1.86736E-2
6.41089E+3, 1.86162E-2
6.47113E+3, 1.77442E-2
6.53193E+3, 2.00107E-2
6.59331E+3, 1.52103E-2
6.65526E+3, 1.12933E-2
6.71779E+3, 1.32277E-2
6.78091E+3, 1.02643E-2
6.84463E+3, 1.09480E-2
6.90894E+3, 1.11354E-2
6.97386E+3, 9.62015E-3
7.03939E+3, 7.25523E-3
7.10553E+3, 6.30298E-3
7.17229E+3, 2.02871E-3
7.23968E+3, 2.17309E-3
7.30771E+3, 1.10037E-4
7.37637E+3, 3.84076E-3
7.44568E+3, 2.81226E-4
7.51564E+3, 3.21107E-3
7.58626E+3, 7.12594E-3
7.65754E+3, 6.58716E-3
7.72949E+3, 8.13970E-3
7.80212E+3, 8.92697E-3
7.87543E+3, 7.03034E-3
7.94943E+3, 7.83712E-3
8.02412E+3, 9.77134E-3
8.09952E+3, 1.04065E-2
8.17562E+3, 1.25229E-2
8.25244E+3, 1.50254E-2
8.32998E+3, 1.44286E-2
8.40825E+3, 1.59269E-2
8.48726E+3, 1.70047E-2
8.56701E+3, 2.11485E-2
8.64750E+3, 2.41662E-2
8.72876E+3, 2.47683E-2
8.81077E+3, 2.56958E-2
8.89356E+3, 2.75409E-2
8.97713E+3, 2.91309E-2
9.06148E+3, 3.11711E-2
9.14662E+3, 3.27922E-2
9.23256E+3, 3.30356E-2
9.31931E+3, 3.57397E-2
9.40688E+3, 3.89296E-2
9.49527E+3, 4.02756E-2
9.58449E+3, 4.38820E-2
9.67454E+3, 4.83277E-2
9.76545E+3, 5.00253E-2
9.85720E+3, 5.03261E-2
9.94982E+3, 4.88652E-2
1.00433E+4, 5.43645E-2
1.01377E+4, 5.84859E-2
1.02329E+4, 6.02967E-2
1.03291E+4, 6.33951E-2
1.04261E+4, 6.55388E-2
1.05241E+4, 6.54105E-2
1.06230E+4, 6.67681E-2
1.07228E+4, 7.26962E-2
1.08236E+4, 7.77500E-2
1.09253E+4, 8.01721E-2
1.10279E+4, 8.22256E-2
1.11315E+4, 8.47291E-2
1.12361E+4, 8.76740E-2
1.13417E+4, 9.06323E-2
1.14483E+4, 9.44962E-2
1.15558E+4, 9.70452E-2
1.16644E+4, 9.95531E-2
1.17740E+4, 1.00728E-1
1.18847E+4, 1.04705E-1
1.19963E+4, 1.08764E-1
1.21090E+4, 1.12833E-1
1.22228E+4, 1.16611E-1
1.23377E+4, 1.17103E-1
1.24536E+4, 1.19043E-1
1.25706E+4, 1.22925E-1
1.26887E+4, 1.27335E-1
1.28079E+4, 1.31735E-1
1.29283E+4, 1.34343E-1
1.30498E+4, 1.37541E-1
1.31724E+4, 1.42507E-1
1.32962E+4, 1.49407E-1
1.34211E+4, 1.51318E-1
1.35472E+4, 1.57216E-1
1.36745E+4, 1.64025E-1
1.38030E+4, 1.66195E-1
1.39327E+4, 1.66926E-1
1.40636E+4, 1.70058E-1
1.41957E+4, 1.75609E-1
1.43291E+4, 1.82304E-1
1.44637E+4, 1.89712E-1
1.45997E+4, 1.95438E-1
1.47368E+4, 1.95560E-1
1.48753E+4, 2.04518E-1
1.50151E+4, 2.09774E-1
1.51562E+4, 2.13470E-1
1.52986E+4, 2.19232E-1
1.54423E+4, 2.27621E-1
1.55874E+4, 2.36760E-1
1.57339E+4, 2.44527E-1
1.58817E+4, 2.51156E-1
1.60309E+4, 2.58736E-1
1.61816E+4, 2.64789E-1
1.63336E+4, 2.73002E-1
1.64871E+4, 2.80000E-1
1.66420E+4, 2.87422E-1
1.67984E+4, 2.96802E-1
1.69562E+4, 3.04857E-1
1.71155E+4, 3.13193E-1
1.72763E+4, 3.22874E-1
1.74387E+4, 3.31231E-1
1.76025E+4, 3.41473E-1
1.77679E+4, 3.49527E-1
1.79349E+4, 3.62321E-1
1.81034E+4, 3.74209E-1
1.82735E+4, 3.85781E-1
1.84452E+4, 3.97338E-1
1.86185E+4, 4.07792E-1
1.87935E+4, 4.18891E-1
1.89700E+4, 4.34657E-1
1.91483E+4, 4.48270E-1
1.93282E+4, 4.60764E-1
1.95098E+4, 4.76849E-1
1.96931E+4, 4.90017E-1
1.98782E+4, 5.03887E-1
2.00650E+4, 5.21370E-1
2.02535E+4, 5.40722E-1
2.04438E+4, 5.56985E-1
2.06359E+4, 5.68012E-1
2.08298E+4, 5.82925E-1
2.10255E+4, 5.97648E-1
2.12231E+4, 6.14067E-1
2.14225E+4, 6.29245E-1
2.16238E+4, 6.43558E-1
2.18269E+4, 6.59681E-1
2.20320E+4, 6.78399E-1
2.22390E+4, 6.93861E-1
2.24480E+4, 7.06984E-1
2.26589E+4, 7.19031E-1
2.28718E+4, 7.30833E-1
2.30867E+4, 7.43428E-1
2.33037E+4, 7.56889E-1
2.35226E+4, 7.70338E-1
2.37437E+4, 7.83447E-1
2.39668E+4, 7.91631E-1
2.41920E+4, 7.99298E-1
2.44193E+4, 8.07809E-1
2.46487E+4, 8.16773E-1
2.48803E+4, 8.24374E-1
2.51141E+4, 8.29063E-1
2.53501E+4, 8.32889E-1
2.55883E+4, 8.34078E-1
2.58287E+4, 8.35290E-1
2.60714E+4, 8.35689E-1
2.63164E+4, 8.34272E-1
2.65636E+4, 8.30264E-1
2.68132E+4, 8.23884E-1
2.70652E+4, 8.19457E-1
2.73195E+4, 8.12612E-1
2.75762E+4, 7.99398E-1
2.78353E+4, 7.84641E-1
2.80968E+4, 7.70940E-1
2.83608E+4, 7.57180E-1
2.86273E+4, 7.39072E-1
2.88963E+4, 7.22102E-1
2.91678E+4, 7.03650E-1
2.94419E+4, 6.85295E-1
2.97185E+4, 6.66745E-1
2.99977E+4, 6.46628E-1
3.02796E+4, 6.23434E-1
3.05641E+4, 5.99587E-1
3.08513E+4, 5.76884E-1
3.11412E+4, 5.53858E-1
3.14338E+4, 5.31090E-1
3.17292E+4, 5.08713E-1
3.20273E+4, 4.85418E-1
3.23282E+4, 4.63525E-1
3.26320E+4, 4.40745E-1
3.29386E+4, 4.18738E-1
3.32481E+4, 3.99556E-1
3.35605E+4, 3.83461E-1
3.38758E+4, 3.67460E-1
3.41941E+4, 3.48147E-1
3.45154E+4, 3.27956E-1
3.48397E+4, 3.08559E-1
3.51671E+4, 2.90983E-1
3.54975E+4, 2.75345E-1
3.58311E+4, 2.60178E-1
3.61677E+4, 2.46664E-1
3.65076E+4, 2.31335E-1
3.68506E+4, 2.16372E-1
3.71969E+4, 2.02826E-1
3.75464E+4, 1.90411E-1
3.78992E+4, 1.80035E-1
3.82553E+4, 1.69876E-1
3.86147E+4, 1.60376E-1
3.89775E+4, 1.50972E-1
3.93438E+4, 1.41002E-1
3.97135E+4, 1.30312E-1
4.00866E+4, 1.21165E-1
4.04633E+4, 1.11818E-1
4.08435E+4, 1.05091E-1
4.12272E+4, 1.00272E-1
4.16146E+4, 9.24505E-2
4.20056E+4, 8.29643E-2
4.24003E+4, 7.68293E-2
4.27987E+4, 7.13654E-2
4.32009E+4, 6.57477E-2
4.36068E+4, 6.03755E-2
4.40165E+4, 5.65347E-2
4.44301E+4, 5.10649E-2
4.48476E+4, 4.56932E-2
4.52690E+4, 4.06624E-2
4.56943E+4, 3.58164E-2
4.61237E+4, 3.20898E-2
4.65571E+4, 2.99457E-2
4.69945E+4, 2.75906E-2
4.74361E+4, 2.47025E-2
4.78818E+4, 2.13932E-2
4.83317E+4, 1.77768E-2
4.87858E+4, 1.60546E-2
4.92442E+4, 1.52336E-2
4.97069E+4, 1.49598E-2
5.01740E+4, 1.47784E-2
5.06454E+4, 1.22065E-2
5.11213E+4, 1.11964E-2
5.16017E+4, 1.07827E-2
5.20865E+4, 9.69257E-3
5.25759E+4, 6.72985E-3
##END=$$ End of the data block
