##TITLE=Spectrum
##JCAMP-DX=5.00 $$ chemotion-converter-app (1.1.0)
##DATA TYPE=SIZE EXCLUSION CHROMATOGRAPHY
##DATA CLASS=XYPOINTS
##ORIGIN=
##OWNER=
##XUNITS=G/MOL
##YUNITS=ARBITRARY UNITS
##LABEL=Vial   1: MS170_crude - 1
##COMMENTS=X:\Marvin Subarew\PAETMC Thiol-ene\MS170\2022-02-04 MS170_crudefull.TXT
##MN= 1.856E+3
##MW= 7.377E+3
##D= 3.974E+0
##MP= 6.903E+2
##DETEC1=I2: RI Detector 1, RI Signal
##DETEC2=I2: UV Detector 1, UV Signal
##DETEC3=I2: Pump 1, Sample Pump Pressure
##COL1=PSS SDV 5µm
##COL2=PSS SDV 5µm
##COL3=PSS SDV 5µm
##IN_VOL= 50.000
##ELUENT=THF
##FLOW=  1.000
##TEMPERATURE= 35.000
##DATE=04/02/22
##TIME=11:40:47
##NO_DEC=2
##SOFTWARE=WINGPC
##VERSION=8#1
##OPERATOR=itcp-akt
##FIRSTX=5.79532E+2
##LASTX=5.25759E+4
##MINX=579.532
##MAXX=52575.9
##MINY=0.0041901
##MAXY=2.10439
##NPOINTS=483
##FIRSTY=4.90538E-3
##XUNITS=G/MOL
##YUNITS=ARBITRARY UNITS
##XYPOINTS=(XY..XY)
5.79532E+2, 4.90538E-3
5.84977E+2, 6.79544E-3
5.90474E+2, 7.37545E-3
5.96022E+2, 9.50648E-3
6.01622E+2, 1.05883E-2
6.07275E+2, 1.34187E-2
6.12981E+2, 1.40660E-2
6.18741E+2, 1.72663E-2
6.24555E+2, 1.89546E-2
6.30423E+2, 2.18948E-2
6.36347E+2, 2.38867E-2
6.42326E+2, 2.67453E-2
6.48361E+2, 2.85362E-2
6.54453E+2, 3.04989E-2
6.60603E+2, 3.27390E-2
6.66810E+2, 3.52282E-2
6.73075E+2, 3.82791E-2
6.79400E+2, 3.93656E-2
6.85783E+2, 4.20915E-2
6.92227E+2, 4.33046E-2
6.98731E+2, 4.56735E-2
7.05297E+2, 4.71891E-2
7.11924E+2, 4.98118E-2
7.18613E+2, 5.14035E-2
7.25365E+2, 5.36770E-2
7.32181E+2, 5.54961E-2
7.39060E+2, 5.75977E-2
7.46005E+2, 5.93033E-2
7.53014E+2, 6.14232E-2
7.60090E+2, 6.39353E-2
7.67232E+2, 6.75866E-2
7.74441E+2, 7.05796E-2
7.81717E+2, 7.48969E-2
7.89063E+2, 7.80310E-2
7.96477E+2, 8.38270E-2
8.03961E+2, 8.76433E-2
8.11515E+2, 9.29281E-2
8.19140E+2, 9.79031E-2
8.26836E+2, 1.04018E-1
8.34606E+2, 1.09148E-1
8.42448E+2, 1.15888E-1
8.50363E+2, 1.23793E-1
8.58354E+2, 1.30478E-1
8.66419E+2, 1.39249E-1
8.74560E+2, 1.47392E-1
8.82777E+2, 1.57200E-1
8.91072E+2, 1.65988E-1
8.99445E+2, 1.76475E-1
9.07896E+2, 1.86533E-1
9.16427E+2, 1.98003E-1
9.25037E+2, 2.09640E-1
9.33729E+2, 2.22451E-1
9.42503E+2, 2.36585E-1
9.51359E+2, 2.51393E-1
9.60298E+2, 2.65789E-1
9.69321E+2, 2.83261E-1
9.78429E+2, 2.97678E-1
9.87622E+2, 3.17976E-1
9.96902E+2, 3.35071E-1
1.00627E+3, 3.56399E-1
1.01572E+3, 3.77241E-1
1.02527E+3, 4.00956E-1
1.03490E+3, 4.25129E-1
1.04463E+3, 4.50416E-1
1.05444E+3, 4.77418E-1
1.06435E+3, 5.05786E-1
1.07435E+3, 5.34585E-1
1.08444E+3, 5.65519E-1
1.09463E+3, 5.95737E-1
1.10492E+3, 6.29639E-1
1.11530E+3, 6.63548E-1
1.12578E+3, 6.99639E-1
1.13636E+3, 7.36596E-1
1.14704E+3, 7.74656E-1
1.15781E+3, 8.13953E-1
1.16869E+3, 8.53367E-1
1.17967E+3, 8.95873E-1
1.19076E+3, 9.38506E-1
1.20195E+3, 9.81199E-1
1.21324E+3, 1.02583E+0
1.22464E+3, 1.07048E+0
1.23615E+3, 1.11563E+0
1.24776E+3, 1.16203E+0
1.25949E+3, 1.20746E+0
1.27132E+3, 1.25593E+0
1.28327E+3, 1.30105E+0
1.29532E+3, 1.35015E+0
1.30749E+3, 1.39513E+0
1.31978E+3, 1.44338E+0
1.33218E+3, 1.48975E+0
1.34470E+3, 1.53655E+0
1.35733E+3, 1.58231E+0
1.37009E+3, 1.62706E+0
1.38296E+3, 1.66996E+0
1.39595E+3, 1.71471E+0
1.40907E+3, 1.75400E+0
1.42231E+3, 1.79408E+0
1.43568E+3, 1.83127E+0
1.44917E+3, 1.86873E+0
1.46278E+3, 1.90331E+0
1.47653E+3, 1.93520E+0
1.49040E+3, 1.96587E+0
1.50440E+3, 1.99348E+0
1.51854E+3, 2.01833E+0
1.53281E+3, 2.04080E+0
1.54721E+3, 2.05954E+0
1.56175E+3, 2.07507E+0
1.57642E+3, 2.08863E+0
1.59123E+3, 2.09565E+0
1.60619E+3, 2.10393E+0
1.62128E+3, 2.10417E+0
1.63651E+3, 2.10439E+0
1.65189E+3, 2.09948E+0
1.66741E+3, 2.09221E+0
1.68308E+3, 2.08118E+0
1.69889E+3, 2.06758E+0
1.71485E+3, 2.04949E+0
1.73097E+3, 2.02864E+0
1.74723E+3, 2.00292E+0
1.76365E+3, 1.97487E+0
1.78022E+3, 1.94296E+0
1.79695E+3, 1.90688E+0
1.81383E+3, 1.87077E+0
1.83088E+3, 1.82938E+0
1.84808E+3, 1.78821E+0
1.86544E+3, 1.74224E+0
1.88297E+3, 1.69567E+0
1.90066E+3, 1.64592E+0
1.91852E+3, 1.59604E+0
1.93655E+3, 1.54197E+0
1.95475E+3, 1.49042E+0
1.97311E+3, 1.43503E+0
1.99165E+3, 1.38136E+0
2.01037E+3, 1.32617E+0
2.02926E+3, 1.27133E+0
2.04832E+3, 1.21787E+0
2.06757E+3, 1.16290E+0
2.08700E+3, 1.11087E+0
2.10661E+3, 1.05908E+0
2.12640E+3, 1.00928E+0
2.14638E+3, 9.60169E-1
2.16655E+3, 9.13078E-1
2.18691E+3, 8.66717E-1
2.20745E+3, 8.25801E-1
2.22820E+3, 7.83515E-1
2.24913E+3, 7.47733E-1
2.27026E+3, 7.10191E-1
2.29160E+3, 6.78199E-1
2.31313E+3, 6.46982E-1
2.33486E+3, 6.19245E-1
2.35680E+3, 5.94266E-1
2.37895E+3, 5.70546E-1
2.40130E+3, 5.51440E-1
2.42386E+3, 5.34878E-1
2.44664E+3, 5.19379E-1
2.46963E+3, 5.06921E-1
2.49283E+3, 4.98130E-1
2.51625E+3, 4.91004E-1
2.53990E+3, 4.87843E-1
2.56376E+3, 4.82903E-1
2.58785E+3, 4.84083E-1
2.61217E+3, 4.84047E-1
2.63671E+3, 4.88609E-1
2.66149E+3, 4.94433E-1
2.68649E+3, 5.02353E-1
2.71174E+3, 5.10675E-1
2.73722E+3, 5.22222E-1
2.76294E+3, 5.33238E-1
2.78890E+3, 5.47522E-1
2.81510E+3, 5.59970E-1
2.84155E+3, 5.76449E-1
2.86825E+3, 5.90791E-1
2.89520E+3, 6.06775E-1
2.92241E+3, 6.23739E-1
2.94987E+3, 6.40015E-1
2.97758E+3, 6.56944E-1
3.00556E+3, 6.71890E-1
3.03380E+3, 6.88114E-1
3.06231E+3, 7.04294E-1
3.09108E+3, 7.17629E-1
3.12013E+3, 7.31352E-1
3.14944E+3, 7.43493E-1
3.17904E+3, 7.53872E-1
3.20891E+3, 7.63991E-1
3.23906E+3, 7.69858E-1
3.26949E+3, 7.78717E-1
3.30021E+3, 7.81371E-1
3.33122E+3, 7.86149E-1
3.36252E+3, 7.85846E-1
3.39412E+3, 7.86368E-1
3.42601E+3, 7.84695E-1
3.45820E+3, 7.80133E-1
3.49069E+3, 7.73200E-1
3.52349E+3, 7.65507E-1
3.55660E+3, 7.53588E-1
3.59002E+3, 7.43163E-1
3.62375E+3, 7.26774E-1
3.65780E+3, 7.14325E-1
3.69217E+3, 6.95777E-1
3.72686E+3, 6.79547E-1
3.76188E+3, 6.59213E-1
3.79723E+3, 6.40040E-1
3.83291E+3, 6.18545E-1
3.86892E+3, 5.97140E-1
3.90527E+3, 5.74611E-1
3.94197E+3, 5.52699E-1
3.97901E+3, 5.27944E-1
4.01640E+3, 5.04786E-1
4.05413E+3, 4.80149E-1
4.09223E+3, 4.60206E-1
4.13068E+3, 4.35494E-1
4.16949E+3, 4.14651E-1
4.20867E+3, 3.92078E-1
4.24821E+3, 3.72403E-1
4.28813E+3, 3.51616E-1
4.32842E+3, 3.32418E-1
4.36909E+3, 3.13551E-1
4.41014E+3, 2.95712E-1
4.45158E+3, 2.78086E-1
4.49341E+3, 2.62383E-1
4.53563E+3, 2.46707E-1
4.57825E+3, 2.32865E-1
4.62127E+3, 2.18073E-1
4.66469E+3, 2.07262E-1
4.70852E+3, 1.94167E-1
4.75276E+3, 1.84498E-1
4.79742E+3, 1.72334E-1
4.84250E+3, 1.65075E-1
4.88800E+3, 1.55315E-1
4.93392E+3, 1.48798E-1
4.98028E+3, 1.41798E-1
5.02708E+3, 1.35122E-1
5.07431E+3, 1.29407E-1
5.12199E+3, 1.23783E-1
5.17012E+3, 1.20306E-1
5.21870E+3, 1.15654E-1
5.26774E+3, 1.12423E-1
5.31723E+3, 1.09410E-1
5.36719E+3, 1.07347E-1
5.41762E+3, 1.04882E-1
5.46853E+3, 1.02902E-1
5.51991E+3, 1.00750E-1
5.57178E+3, 9.96280E-2
5.62413E+3, 9.83826E-2
5.67698E+3, 9.79182E-2
5.73032E+3, 9.60476E-2
5.78416E+3, 9.50830E-2
5.83851E+3, 9.32125E-2
5.89337E+3, 9.40603E-2
5.94874E+3, 9.17625E-2
6.00464E+3, 9.24005E-2
6.06106E+3, 9.01386E-2
6.11801E+3, 9.06830E-2
6.17550E+3, 8.84299E-2
6.23352E+3, 8.91998E-2
6.29209E+3, 8.81750E-2
6.35121E+3, 8.69385E-2
6.41089E+3, 8.57715E-2
6.47113E+3, 8.45391E-2
6.53193E+3, 8.47302E-2
6.59331E+3, 8.32523E-2
6.65526E+3, 8.39589E-2
6.71779E+3, 8.15993E-2
6.78091E+3, 8.32819E-2
6.84463E+3, 8.04343E-2
6.90894E+3, 8.25393E-2
6.97386E+3, 7.98674E-2
7.03939E+3, 8.15051E-2
7.10553E+3, 8.00187E-2
7.17229E+3, 8.11537E-2
7.23968E+3, 8.06771E-2
7.30771E+3, 8.01223E-2
7.37637E+3, 8.08403E-2
7.44568E+3, 8.09133E-2
7.51564E+3, 8.24592E-2
7.58626E+3, 8.22080E-2
7.65754E+3, 8.38106E-2
7.72949E+3, 8.29782E-2
7.80212E+3, 8.47933E-2
7.87543E+3, 8.48459E-2
7.94943E+3, 8.72062E-2
8.02412E+3, 8.73703E-2
8.09952E+3, 8.80159E-2
8.17562E+3, 8.86851E-2
8.25244E+3, 9.04039E-2
8.32998E+3, 9.16474E-2
8.40825E+3, 9.31474E-2
8.48726E+3, 9.50553E-2
8.56701E+3, 9.62495E-2
8.64750E+3, 9.82892E-2
8.72876E+3, 9.96539E-2
8.81077E+3, 1.01501E-1
8.89356E+3, 1.03155E-1
8.97713E+3, 1.04890E-1
9.06148E+3, 1.07152E-1
9.14662E+3, 1.08781E-1
9.23256E+3, 1.11025E-1
9.31931E+3, 1.12375E-1
9.40688E+3, 1.15374E-1
9.49527E+3, 1.17499E-1
9.58449E+3, 1.20014E-1
9.67454E+3, 1.22745E-1
9.76545E+3, 1.24988E-1
9.85720E+3, 1.27795E-1
9.94982E+3, 1.28567E-1
1.00433E+4, 1.32918E-1
1.01377E+4, 1.33762E-1
1.02329E+4, 1.37476E-1
1.03291E+4, 1.39160E-1
1.04261E+4, 1.42998E-1
1.05241E+4, 1.45681E-1
1.06230E+4, 1.48979E-1
1.07228E+4, 1.51735E-1
1.08236E+4, 1.54348E-1
1.09253E+4, 1.57456E-1
1.10279E+4, 1.60607E-1
1.11315E+4, 1.64177E-1
1.12361E+4, 1.67985E-1
1.13417E+4, 1.70993E-1
1.14483E+4, 1.74381E-1
1.15558E+4, 1.76898E-1
1.16644E+4, 1.81271E-1
1.17740E+4, 1.82844E-1
1.18847E+4, 1.87762E-1
1.19963E+4, 1.90466E-1
1.21090E+4, 1.94684E-1
1.22228E+4, 1.97472E-1
1.23377E+4, 2.01414E-1
1.24536E+4, 2.05375E-1
1.25706E+4, 2.09060E-1
1.26887E+4, 2.13321E-1
1.28079E+4, 2.17485E-1
1.29283E+4, 2.21549E-1
1.30498E+4, 2.26074E-1
1.31724E+4, 2.28903E-1
1.32962E+4, 2.33601E-1
1.34211E+4, 2.36693E-1
1.35472E+4, 2.42344E-1
1.36745E+4, 2.46391E-1
1.38030E+4, 2.51873E-1
1.39327E+4, 2.56696E-1
1.40636E+4, 2.61593E-1
1.41957E+4, 2.66760E-1
1.43291E+4, 2.71488E-1
1.44637E+4, 2.77637E-1
1.45997E+4, 2.83732E-1
1.47368E+4, 2.89605E-1
1.48753E+4, 2.95570E-1
1.50151E+4, 3.00868E-1
1.51562E+4, 3.07410E-1
1.52986E+4, 3.13287E-1
1.54423E+4, 3.20073E-1
1.55874E+4, 3.27040E-1
1.57339E+4, 3.34349E-1
1.58817E+4, 3.42917E-1
1.60309E+4, 3.49391E-1
1.61816E+4, 3.57892E-1
1.63336E+4, 3.64897E-1
1.64871E+4, 3.74099E-1
1.66420E+4, 3.82894E-1
1.67984E+4, 3.95359E-1
1.69562E+4, 4.05727E-1
1.71155E+4, 4.15862E-1
1.72763E+4, 4.28121E-1
1.74387E+4, 4.37225E-1
1.76025E+4, 4.50873E-1
1.77679E+4, 4.63442E-1
1.79349E+4, 4.76385E-1
1.81034E+4, 4.89588E-1
1.82735E+4, 5.03028E-1
1.84452E+4, 5.16965E-1
1.86185E+4, 5.31151E-1
1.87935E+4, 5.45755E-1
1.89700E+4, 5.61502E-1
1.91483E+4, 5.75005E-1
1.93282E+4, 5.91341E-1
1.95098E+4, 6.06442E-1
1.96931E+4, 6.22905E-1
1.98782E+4, 6.38953E-1
2.00650E+4, 6.55166E-1
2.02535E+4, 6.71781E-1
2.04438E+4, 6.86971E-1
2.06359E+4, 7.04040E-1
2.08298E+4, 7.20405E-1
2.10255E+4, 7.35847E-1
2.12231E+4, 7.50949E-1
2.14225E+4, 7.65827E-1
2.16238E+4, 7.80753E-1
2.18269E+4, 7.95343E-1
2.20320E+4, 8.08288E-1
2.22390E+4, 8.21853E-1
2.24480E+4, 8.33488E-1
2.26589E+4, 8.45522E-1
2.28718E+4, 8.55806E-1
2.30867E+4, 8.65325E-1
2.33037E+4, 8.74545E-1
2.35226E+4, 8.82039E-1
2.37437E+4, 8.89245E-1
2.39668E+4, 8.95113E-1
2.41920E+4, 8.99349E-1
2.44193E+4, 9.01904E-1
2.46487E+4, 9.02976E-1
2.48803E+4, 9.02964E-1
2.51141E+4, 9.01915E-1
2.53501E+4, 8.97737E-1
2.55883E+4, 8.93028E-1
2.58287E+4, 8.85520E-1
2.60714E+4, 8.76929E-1
2.63164E+4, 8.66520E-1
2.65636E+4, 8.53949E-1
2.68132E+4, 8.40945E-1
2.70652E+4, 8.25117E-1
2.73195E+4, 8.08432E-1
2.75762E+4, 7.90229E-1
2.78353E+4, 7.71444E-1
2.80968E+4, 7.52086E-1
2.83608E+4, 7.31481E-1
2.86273E+4, 7.09933E-1
2.88963E+4, 6.88024E-1
2.91678E+4, 6.65296E-1
2.94419E+4, 6.42350E-1
2.97185E+4, 6.18722E-1
2.99977E+4, 5.94283E-1
3.02796E+4, 5.70705E-1
3.05641E+4, 5.45572E-1
3.08513E+4, 5.22332E-1
3.11412E+4, 4.98702E-1
3.14338E+4, 4.75421E-1
3.17292E+4, 4.53280E-1
3.20273E+4, 4.30994E-1
3.23282E+4, 4.10184E-1
3.26320E+4, 3.89904E-1
3.29386E+4, 3.70138E-1
3.32481E+4, 3.51226E-1
3.35605E+4, 3.33193E-1
3.38758E+4, 3.15099E-1
3.41941E+4, 2.98284E-1
3.45154E+4, 2.81640E-1
3.48397E+4, 2.66191E-1
3.51671E+4, 2.51497E-1
3.54975E+4, 2.36871E-1
3.58311E+4, 2.24101E-1
3.61677E+4, 2.10485E-1
3.65076E+4, 1.98138E-1
3.68506E+4, 1.86285E-1
3.71969E+4, 1.74780E-1
3.75464E+4, 1.64384E-1
3.78992E+4, 1.53794E-1
3.82553E+4, 1.44140E-1
3.86147E+4, 1.34683E-1
3.89775E+4, 1.25638E-1
3.93438E+4, 1.17368E-1
3.97135E+4, 1.09613E-1
4.00866E+4, 1.01825E-1
4.04633E+4, 9.49738E-2
4.08435E+4, 8.80498E-2
4.12272E+4, 8.09322E-2
4.16146E+4, 7.51257E-2
4.20056E+4, 6.90291E-2
4.24003E+4, 6.37840E-2
4.27987E+4, 5.85118E-2
4.32009E+4, 5.34630E-2
4.36068E+4, 4.96250E-2
4.40165E+4, 4.48577E-2
4.44301E+4, 4.09450E-2
4.48476E+4, 3.73088E-2
4.52690E+4, 3.38592E-2
4.56943E+4, 3.07238E-2
4.61237E+4, 2.79246E-2
4.65571E+4, 2.50998E-2
4.69945E+4, 2.26313E-2
4.74361E+4, 2.03257E-2
4.78818E+4, 1.79038E-2
4.83317E+4, 1.65554E-2
4.87858E+4, 1.45772E-2
4.92442E+4, 1.30815E-2
4.97069E+4, 1.16032E-2
5.01740E+4, 9.25887E-3
5.06454E+4, 8.36755E-3
5.11213E+4, 7.31611E-3
5.16017E+4, 6.29879E-3
5.20865E+4, 5.29571E-3
5.25759E+4, 4.19010E-3
##END=$$ End of the data block
