##TITLE=Spectrum
##JCAMP-DX=5.00 $$ chemotion-converter-app (1.4.0)
##DATA TYPE=CYCLIC VOLTAMMETRY
##DATA CLASS=XYPOINTS
##ORIGIN=
##OWNER=
##CALCULATION_APPLIED_Y=True
##XUNITS=Voltage in V
##YUNITS=Current in A
##CYCLES=1
##TIME=14:12:35
##DATE=2019-10-28
##SCAN_RATE=2.000E-001
##SOFTWARE=PSTrace
##SOFTWARE_VERSION=5.4.1528.18404
##STEP_SIZE=1.000E-002
##VOLTAGE_START=0.000E+000
##VOLTAGE_LIMIT_ONE=-2.500E+000
##VOLTAGE_LIMIT_TWO=2.000E+000
##VOLTAGE_LIMIT_END=5.000E-001
##COMMENTS=p-Cl-Ph-CO2Me_MeCN.pssession
##FIRSTX=4.99413E-05
##LASTX=0.0100439
##MINX=-2.50842
##MAXX=2.00882
##MINY=-6.12041e-06
##MAXY=1.6828399999999996e-05
##NPOINTS=904
##FIRSTY=-4.0156799999999996e-07
##XUNITS=Voltage in V
##YUNITS=Current in A
##XYPOINTS=(XY..XY)
4.99413E-05, -4.0156799999999996e-07
-0.00994404, -2.8719199999999997e-07
-0.019938, -2.47192e-07
-0.0299316, -2.35317e-07
-0.0399256, -2.28441e-07
-0.0499196, -2.3115999999999999e-07
-0.0599135, -2.33847e-07
-0.0699075, -2.3816e-07
-0.0799013, -2.4272299999999997e-07
-0.0898951, -2.5066e-07
-0.0998891, -2.56035e-07
-0.109883, -2.6572299999999995e-07
-0.119877, -2.71785e-07
-0.129871, -2.8284799999999997e-07
-0.139865, -2.88911e-07
-0.149859, -3.0009799999999994e-07
-0.159853, -3.0703599999999997e-07
-0.169846, -3.17349e-07
-0.17984, -3.25036e-07
-0.189834, -3.37224e-07
-0.199828, -3.45474e-07
-0.209822, -3.55849e-07
-0.219816, -3.6484899999999996e-07
-0.22981, -3.76162e-07
-0.239804, -3.8691199999999996e-07
-0.249798, -3.97475e-07
-0.259792, -4.0747499999999996e-07
-0.269785, -4.17788e-07
-0.279779, -4.2953799999999996e-07
-0.289773, -4.41788e-07
-0.299767, -4.5060099999999995e-07
-0.309761, -4.6347599999999996e-07
-0.319755, -4.75726e-07
-0.329749, -4.87351e-07
-0.339743, -5.00101e-07
-0.349737, -5.12352e-07
-0.359731, -5.22227e-07
-0.369724, -5.35852e-07
-0.379718, -5.474769999999999e-07
-0.389712, -5.633519999999999e-07
-0.399706, -5.744149999999999e-07
-0.4097, -5.87415e-07
-0.419694, -5.99353e-07
-0.429688, -6.127909999999999e-07
-0.439682, -6.25228e-07
-0.449676, -6.389160000000001e-07
-0.45967, -6.51916e-07
-0.469663, -6.662289999999999e-07
-0.479657, -6.78229e-07
-0.489651, -6.92042e-07
-0.499645, -7.060419999999999e-07
-0.509639, -7.19355e-07
-0.519633, -7.32105e-07
-0.529627, -7.476679999999999e-07
-0.539621, -7.58668e-07
-0.549615, -7.727309999999999e-07
-0.559609, -7.86168e-07
-0.569602, -8.003559999999999e-07
-0.579596, -8.12106e-07
-0.58959, -8.28419e-07
-0.599584, -8.42669e-07
-0.609578, -8.57357e-07
-0.619572, -8.727949999999999e-07
-0.629566, -8.87857e-07
-0.63956, -9.05608e-07
-0.649554, -9.26108e-07
-0.659548, -9.441079999999999e-07
-0.669541, -9.66296e-07
-0.679535, -9.87859e-07
-0.689529, -1.01505e-06
-0.699523, -1.0419799999999998e-06
-0.709517, -1.0733e-06
-0.719511, -1.1020499999999999e-06
-0.729505, -1.13167e-06
-0.739499, -1.1627400000000002e-06
-0.749493, -1.19592e-06
-0.759487, -1.23005e-06
-0.769481, -1.26005e-06
-0.779474, -1.2912399999999999e-06
-0.789468, -1.3216099999999998e-06
-0.799462, -1.3476099999999999e-06
-0.809456, -1.36943e-06
-0.81945, -1.3861099999999998e-06
-0.829444, -1.39743e-06
-0.839438, -1.4054899999999999e-06
-0.849432, -1.41018e-06
-0.859426, -1.4066799999999999e-06
-0.86942, -1.4042399999999999e-06
-0.879413, -1.40455e-06
-0.889407, -1.39843e-06
-0.899401, -1.3932999999999999e-06
-0.909395, -1.39318e-06
-0.919389, -1.38768e-06
-0.929383, -1.38343e-06
-0.939377, -1.3828e-06
-0.949371, -1.3834900000000001e-06
-0.959365, -1.38243e-06
-0.969359, -1.38011e-06
-0.979353, -1.38105e-06
-0.989347, -1.3841799999999999e-06
-0.99934, -1.38549e-06
-1.00933, -1.38468e-06
-1.01933, -1.38686e-06
-1.02932, -1.38949e-06
-1.03932, -1.39255e-06
-1.04931, -1.39374e-06
-1.0593, -1.3971199999999998e-06
-1.0693, -1.39968e-06
-1.07929, -1.40405e-06
-1.08929, -1.40555e-06
-1.09928, -1.41255e-06
-1.10927, -1.4145499999999999e-06
-1.11927, -1.41843e-06
-1.12926, -1.4249899999999998e-06
-1.13926, -1.4309899999999999e-06
-1.14925, -1.43443e-06
-1.15924, -1.4442999999999999e-06
-1.16924, -1.44937e-06
-1.17923, -1.4568e-06
-1.18922, -1.46374e-06
-1.19922, -1.4756199999999998e-06
-1.20921, -1.48118e-06
-1.21921, -1.49455e-06
-1.2292, -1.50324e-06
-1.23919, -1.51518e-06
-1.24919, -1.52774e-06
-1.25918, -1.54499e-06
-1.26918, -1.5576799999999998e-06
-1.27917, -1.5769899999999998e-06
-1.28916, -1.5889899999999999e-06
-1.29916, -1.61256e-06
-1.30915, -1.62874e-06
-1.31915, -1.6463699999999998e-06
-1.32914, -1.66187e-06
-1.33913, -1.67949e-06
-1.34913, -1.69409e-06
-1.35912, -1.7140899999999998e-06
-1.36911, -1.73659e-06
-1.37911, -1.76221e-06
-1.3891, -1.7965899999999998e-06
-1.3991, -1.84034e-06
-1.40909, -1.8990899999999999e-06
-1.41908, -1.97409e-06
-1.42908, -2.0697199999999996e-06
-1.43907, -2.19347e-06
-1.44907, -2.33535e-06
-1.45906, -2.50098e-06
-1.46905, -2.68723e-06
-1.47905, -2.87536e-06
-1.48904, -3.0578599999999997e-06
-1.49904, -3.22349e-06
-1.50903, -3.36099e-06
-1.51902, -3.47099e-06
-1.52902, -3.55912e-06
-1.53901, -3.61599e-06
-1.549, -3.6547399999999998e-06
-1.559, -3.67412e-06
-1.56899, -3.6784899999999997e-06
-1.57899, -3.6709900000000002e-06
-1.58898, -3.6522399999999998e-06
-1.59897, -3.62537e-06
-1.60897, -3.5984899999999997e-06
-1.61896, -3.55787e-06
-1.62896, -3.5159899999999996e-06
-1.63895, -3.47349e-06
-1.64894, -3.43037e-06
-1.65894, -3.38599e-06
-1.66893, -3.33974e-06
-1.67893, -3.29724e-06
-1.68892, -3.25599e-06
-1.69891, -3.21661e-06
-1.70891, -3.17286e-06
-1.7189, -3.14099e-06
-1.7289, -3.09973e-06
-1.73889, -3.07036e-06
-1.74888, -3.0416099999999997e-06
-1.75888, -3.02036e-06
-1.76887, -3.0016099999999996e-06
-1.77886, -2.98786e-06
-1.78886, -2.97723e-06
-1.79885, -2.9591099999999996e-06
-1.80885, -2.95473e-06
-1.81884, -2.95473e-06
-1.82883, -2.9487999999999996e-06
-1.83883, -2.94348e-06
-1.84882, -2.94223e-06
-1.85882, -2.94098e-06
-1.86881, -2.94942e-06
-1.8788, -2.9559799999999996e-06
-1.8888, -2.95848e-06
-1.89879, -2.96598e-06
-1.90879, -2.97864e-06
-1.91878, -2.99036e-06
-1.92877, -2.99973e-06
-1.93877, -3.0247299999999996e-06
-1.94876, -3.0384799999999997e-06
-1.95876, -3.05161e-06
-1.96875, -3.0634800000000003e-06
-1.97874, -3.0791099999999997e-06
-1.98874, -3.10474e-06
-1.99873, -3.12536e-06
-2.00872, -3.1578599999999996e-06
-2.01872, -3.18036e-06
-2.02871, -3.2034899999999996e-06
-2.03871, -3.23474e-06
-2.0487, -3.26286e-06
-2.05869, -3.29224e-06
-2.06869, -3.33536e-06
-2.07868, -3.3659899999999998e-06
-2.08868, -3.48287e-06
-2.09867, -3.4359899999999995e-06
-2.10866, -3.46912e-06
-2.11866, -3.50224e-06
-2.12865, -3.57662e-06
-2.13865, -3.59537e-06
-2.14864, -3.6284900000000002e-06
-2.15863, -3.67537e-06
-2.16863, -3.77037e-06
-2.17862, -3.7822499999999997e-06
-2.18861, -3.83537e-06
-2.19861, -3.8841199999999995e-06
-2.2086, -3.9435e-06
-2.2186, -4.0235000000000005e-06
-2.22859, -4.071e-06
-2.23858, -4.12538e-06
-2.24858, -4.191629999999999e-06
-2.25857, -4.2566300000000004e-06
-2.26857, -4.3235e-06
-2.27856, -4.39101e-06
-2.28855, -4.462259999999999e-06
-2.29855, -4.52726e-06
-2.30854, -4.599759999999999e-06
-2.31854, -4.66976e-06
-2.32853, -4.743509999999999e-06
-2.33852, -4.81289e-06
-2.34852, -4.881009999999999e-06
-2.35851, -4.95539e-06
-2.36851, -5.04039e-06
-2.3785, -5.097889999999999e-06
-2.38849, -5.1685199999999994e-06
-2.39849, -5.24227e-06
-2.40848, -5.3172699999999995e-06
-2.41847, -5.38915e-06
-2.42847, -5.46415e-06
-2.43846, -5.53602e-06
-2.44846, -5.61665e-06
-2.45845, -5.69602e-06
-2.46844, -5.77665e-06
-2.47844, -5.8578999999999994e-06
-2.48843, -5.94415e-06
-2.49843, -6.0285299999999995e-06
-2.50842, -6.12041e-06
-2.49843, -5.1210199999999995e-06
-2.48843, -4.44101e-06
-2.47844, -3.92787e-06
-2.46844, -3.52849e-06
-2.45845, -3.1978599999999997e-06
-2.44846, -2.92411e-06
-2.43846, -2.68973e-06
-2.42847, -2.48848e-06
-2.41847, -2.30972e-06
-2.40848, -2.15722e-06
-2.39849, -2.01472e-06
-2.38849, -1.89222e-06
-2.3785, -1.77722e-06
-2.36851, -1.6759599999999999e-06
-2.35851, -1.58221e-06
-2.34852, -1.49409e-06
-2.33852, -1.4097099999999999e-06
-2.32853, -1.3390799999999999e-06
-2.31854, -1.26908e-06
-2.30854, -1.20221e-06
-2.29855, -1.14096e-06
-2.28855, -1.08845e-06
-2.27856, -1.03408e-06
-2.26857, -9.82828e-07
-2.25857, -9.378269999999999e-07
-2.24858, -8.934509999999999e-07
-2.23858, -8.540759999999999e-07
-2.22859, -8.159509999999999e-07
-2.2186, -7.784499999999999e-07
-2.2086, -7.44075e-07
-2.19861, -7.16574e-07
-2.18861, -6.85948e-07
-2.17862, -6.60323e-07
-2.16863, -6.365730000000001e-07
-2.15863, -6.15323e-07
-2.14864, -5.95946e-07
-2.13865, -5.75322e-07
-2.12865, -5.57196e-07
-2.11866, -5.40946e-07
-2.10866, -5.2407e-07
-2.09867, -5.0907e-07
-2.08868, -4.92195e-07
-2.07868, -4.7657e-07
-2.06869, -4.65944e-07
-2.05869, -4.47195e-07
-2.0487, -4.3406999999999997e-07
-2.03871, -4.1969299999999995e-07
-2.02871, -4.0782e-07
-2.01872, -3.95225e-07
-2.00872, -3.8341199999999997e-07
-1.99873, -3.6778699999999996e-07
-1.98874, -3.58099e-07
-1.97874, -3.45162e-07
-1.96875, -3.34099e-07
-1.95876, -3.1947399999999994e-07
-1.94876, -3.09661e-07
-1.93877, -2.93161e-07
-1.92877, -2.87348e-07
-1.91878, -2.71473e-07
-1.90879, -2.6216e-07
-1.89879, -2.50598e-07
-1.8888, -2.40097e-07
-1.8788, -2.28472e-07
-1.86881, -2.20472e-07
-1.85882, -2.07159e-07
-1.84882, -2.0209699999999999e-07
-1.83883, -1.89472e-07
-1.82883, -1.79847e-07
-1.81884, -1.68346e-07
-1.80885, -1.60409e-07
-1.79885, -1.48908e-07
-1.78886, -1.42596e-07
-1.77886, -1.2865799999999999e-07
-1.76887, -1.21158e-07
-1.75888, -1.11596e-07
-1.74888, -1.0122e-07
-1.73889, -9.12201e-08
-1.7289, -8.33451e-08
-1.7189, -7.37199e-08
-1.70891, -6.37197e-08
-1.69891, -5.540719999999999e-08
-1.68892, -4.4157e-08
-1.67893, -3.55318e-08
-1.66893, -2.54066e-08
-1.65894, -1.67816e-08
-1.64894, -7.9689e-09
-1.63895, -8.437629999999999e-10
-1.62896, 1.3234599999999999e-08
-1.61896, 2.03159e-08
-1.60897, 3.16224e-08
-1.59897, 3.9385e-08
-1.58898, 4.9203899999999996e-08
-1.57899, 5.87103e-08
-1.56899, 6.87917e-08
-1.559, 7.64355e-08
-1.549, 8.689819999999999e-08
-1.53901, 9.74796e-08
-1.52902, 1.0838599999999999e-07
-1.51902, 1.13774e-07
-1.50903, 1.24374e-07
-1.49904, 1.3093e-07
-1.48904, 1.39724e-07
-1.47905, 1.5233e-07
-1.46905, 1.58587e-07
-1.45906, 1.67659e-07
-1.44907, 1.77409e-07
-1.43907, 1.8178399999999998e-07
-1.42908, 1.92284e-07
-1.41908, 2.01659e-07
-1.40909, 2.0822199999999997e-07
-1.3991, 2.1790999999999997e-07
-1.3891, 2.25972e-07
-1.37911, 2.32222e-07
-1.36911, 2.39847e-07
-1.35912, 2.46098e-07
-1.34913, 2.56535e-07
-1.33913, 2.6078499999999996e-07
-1.32914, 2.71848e-07
-1.31915, 2.7634799999999995e-07
-1.30915, 2.8397299999999994e-07
-1.29916, 2.9359800000000003e-07
-1.28916, 2.99411e-07
-1.27917, 3.04223e-07
-1.26918, 3.12411e-07
-1.25918, 3.19724e-07
-1.24919, 3.25036e-07
-1.23919, 3.3166099999999997e-07
-1.2292, 3.38786e-07
-1.21921, 3.44349e-07
-1.20921, 3.54037e-07
-1.19922, 3.55224e-07
-1.18922, 3.6416199999999995e-07
-1.17923, 3.68912e-07
-1.16924, 3.75162e-07
-1.15924, 3.8241199999999994e-07
-1.14925, 3.90162e-07
-1.13926, 3.9441199999999995e-07
-1.12926, 4.03412e-07
-1.11927, 4.01912e-07
-1.10927, 4.101e-07
-1.09928, 4.17225e-07
-1.08929, 4.23163e-07
-1.07929, 4.2753799999999997e-07
-1.0693, 4.33288e-07
-1.0593, 4.37413e-07
-1.04931, 4.44101e-07
-1.03932, 4.5141299999999997e-07
-1.02932, 4.5785099999999996e-07
-1.01933, 4.6228799999999994e-07
-1.00933, 4.6922599999999997e-07
-0.99934, 4.71164e-07
-0.989347, 4.787259999999999e-07
-0.979353, 4.81976e-07
-0.969359, 4.87601e-07
-0.959365, 4.950389999999999e-07
-0.949371, 5.00414e-07
-0.939377, 5.04664e-07
-0.929383, 5.14602e-07
-0.919389, 5.197889999999999e-07
-0.909395, 5.27102e-07
-0.899401, 5.32289e-07
-0.889407, 5.416649999999999e-07
-0.879413, 5.4654e-07
-0.86942, 5.58915e-07
-0.859426, 5.66852e-07
-0.849432, 5.78915e-07
-0.839438, 5.8879e-07
-0.829444, 6.06666e-07
-0.81945, 6.14728e-07
-0.809456, 6.32228e-07
-0.799462, 6.45291e-07
-0.789468, 6.613539999999999e-07
-0.779474, 6.70417e-07
-0.769481, 6.79354e-07
-0.759487, 6.85854e-07
-0.749493, 6.94167e-07
-0.739499, 6.98354e-07
-0.729505, 7.04104e-07
-0.719511, 7.061669999999999e-07
-0.709517, 7.07605e-07
-0.699523, 7.130419999999999e-07
-0.689529, 7.154169999999999e-07
-0.679535, 7.186669999999999e-07
-0.669541, 7.254169999999999e-07
-0.659548, 7.23542e-07
-0.649554, 7.28105e-07
-0.63956, 7.322920000000001e-07
-0.629566, 7.36855e-07
-0.619572, 7.359799999999999e-07
-0.609578, 7.419179999999999e-07
-0.599584, 7.430429999999999e-07
-0.58959, 7.49355e-07
-0.579596, 7.49668e-07
-0.569602, 7.56043e-07
-0.559609, 7.59043e-07
-0.549615, 7.623549999999999e-07
-0.539621, 7.65668e-07
-0.529627, 7.708549999999999e-07
-0.519633, 7.75356e-07
-0.509639, 7.77856e-07
-0.499645, 7.801679999999999e-07
-0.489651, 7.841059999999999e-07
-0.479657, 7.891059999999999e-07
-0.469663, 7.94481e-07
-0.45967, 7.98668e-07
-0.449676, 8.01856e-07
-0.439682, 8.06106e-07
-0.429688, 8.099809999999999e-07
-0.419694, 8.14794e-07
-0.4097, 8.22731e-07
-0.399706, 8.27231e-07
-0.389712, 8.31231e-07
-0.379718, 8.37106e-07
-0.369724, 8.39732e-07
-0.359731, 8.470439999999999e-07
-0.349737, 8.529189999999999e-07
-0.339743, 8.58669e-07
-0.329749, 8.63357e-07
-0.319755, 8.694819999999999e-07
-0.309761, 8.740449999999999e-07
-0.299767, 8.787949999999999e-07
-0.289773, 8.84482e-07
-0.279779, 8.89107e-07
-0.269785, 8.924199999999999e-07
-0.259792, 9.01545e-07
-0.249798, 9.04983e-07
-0.239804, 9.093579999999999e-07
-0.22981, 9.1517e-07
-0.219816, 9.170449999999999e-07
-0.209822, 9.252329999999999e-07
-0.199828, 9.28921e-07
-0.189834, 9.329199999999999e-07
-0.17984, 9.38108e-07
-0.169846, 9.42546e-07
-0.159853, 9.500459999999999e-07
-0.149859, 9.49358e-07
-0.139865, 9.574829999999999e-07
-0.129871, 9.61046e-07
-0.119877, 9.65609e-07
-0.109883, 9.70484e-07
-0.0998891, 9.765459999999999e-07
-0.0898951, 9.76234e-07
-0.0799013, 9.86171e-07
-0.0699075, 9.85921e-07
-0.0599135, 9.93671e-07
-0.0499196, 9.95672e-07
-0.0399256, 1.00105e-06
-0.0299316, 1.00686e-06
-0.019938, 1.01248e-06
-0.00994404, 1.0144200000000001e-06
4.99413E-05, 1.02092e-06
0.0100439, 1.02498e-06
0.0200379, 1.02892e-06
0.0300315, 1.0345500000000001e-06
0.0400255, 1.0394799999999998e-06
0.0500195, 1.04248e-06
0.0600134, 1.0479199999999999e-06
0.0700074, 1.04873e-06
0.080001, 1.05548e-06
0.089995, 1.06061e-06
0.099989, 1.06336e-06
0.109983, 1.06824e-06
0.119977, 1.0747999999999999e-06
0.129971, 1.0747999999999999e-06
0.139964, 1.0876099999999998e-06
0.149958, 1.0852999999999998e-06
0.159952, 1.0904199999999999e-06
0.169946, 1.0984899999999999e-06
0.17994, 1.10261e-06
0.189934, 1.1074900000000001e-06
0.199928, 1.11267e-06
0.209922, 1.11667e-06
0.219916, 1.12811e-06
0.22991, 1.13124e-06
0.239904, 1.1422399999999999e-06
0.249897, 1.14861e-06
0.259891, 1.1569899999999998e-06
0.269885, 1.16467e-06
0.279879, 1.17755e-06
0.289873, 1.18886e-06
0.299867, 1.2028e-06
0.309861, 1.21924e-06
0.319855, 1.23399e-06
0.329849, 1.2492399999999999e-06
0.339843, 1.27311e-06
0.349837, 1.2991099999999998e-06
0.35983, 1.3223e-06
0.369824, 1.35124e-06
0.379818, 1.38318e-06
0.389812, 1.41487e-06
0.399806, 1.45255e-06
0.4098, 1.48493e-06
0.419794, 1.5264899999999998e-06
0.429788, 1.5641799999999999e-06
0.439782, 1.60721e-06
0.449776, 1.64596e-06
0.45977, 1.6847099999999998e-06
0.469764, 1.7209599999999999e-06
0.479757, 1.7515899999999998e-06
0.489751, 1.78221e-06
0.499745, 1.8103399999999999e-06
0.509739, 1.83034e-06
0.519733, 1.84847e-06
0.529727, 1.86409e-06
0.539721, 1.8765899999999999e-06
0.549715, 1.87597e-06
0.559709, 1.8778399999999999e-06
0.569703, 1.87472e-06
0.579696, 1.87222e-06
0.58969, 1.8597099999999998e-06
0.599684, 1.8578399999999999e-06
0.609678, 1.84597e-06
0.619672, 1.8378399999999998e-06
0.629666, 1.83034e-06
0.63966, 1.81909e-06
0.649654, 1.80909e-06
0.659648, 1.7997099999999997e-06
0.669642, 1.7915899999999999e-06
0.679635, 1.78659e-06
0.689629, 1.7722199999999999e-06
0.699623, 1.77096e-06
0.709617, 1.76347e-06
0.719611, 1.7597199999999998e-06
0.729605, 1.75221e-06
0.739599, 1.7509699999999999e-06
0.749593, 1.75221e-06
0.759587, 1.74659e-06
0.769581, 1.74784e-06
0.779574, 1.7453399999999999e-06
0.789568, 1.7440899999999999e-06
0.799562, 1.7472099999999998e-06
0.809556, 1.74971e-06
0.81955, 1.7503399999999998e-06
0.829544, 1.7597199999999998e-06
0.839538, 1.75909e-06
0.849532, 1.76659e-06
0.859526, 1.76784e-06
0.86952, 1.77846e-06
0.879513, 1.7878400000000001e-06
0.889507, 1.79221e-06
0.899501, 1.80409e-06
0.909495, 1.81221e-06
0.919489, 1.81721e-06
0.929483, 1.8297099999999999e-06
0.939477, 1.8409699999999998e-06
0.949471, 1.8584699999999999e-06
0.959465, 1.8634699999999998e-06
0.969459, 1.87597e-06
0.979453, 1.8872199999999998e-06
0.989446, 1.9022199999999999e-06
0.99944, 1.92472e-06
1.00943, 1.93409e-06
1.01943, 1.95284e-06
1.02942, 1.97347e-06
1.03942, 1.99284e-06
1.04941, 2.0140899999999996e-06
1.0594, 2.03659e-06
1.0694, 2.06222e-06
1.07939, 2.08534e-06
1.08939, 2.11035e-06
1.09938, 2.1441e-06
1.10937, 2.1716e-06
1.11937, 2.2034699999999998e-06
1.12936, 2.2428499999999996e-06
1.13935, 2.27347e-06
1.14935, 2.3153499999999998e-06
1.15934, 2.34722e-06
1.16934, 2.3965999999999996e-06
1.17933, 2.43535e-06
1.18932, 2.49035e-06
1.19932, 2.53285e-06
1.20931, 2.5816e-06
1.21931, 2.6359799999999997e-06
1.2293, 2.69098e-06
1.23929, 2.74223e-06
1.24929, 2.8078599999999996e-06
1.25928, 2.86786e-06
1.26928, 2.93598e-06
1.27927, 2.9984799999999996e-06
1.28926, 3.06786e-06
1.29926, 3.13973e-06
1.30925, 3.21849e-06
1.31925, 3.2859899999999997e-06
1.32924, 3.36661e-06
1.33923, 3.4503699999999996e-06
1.34923, 3.53099e-06
1.35922, 3.61349e-06
1.36921, 3.70474e-06
1.37921, 3.7878699999999998e-06
1.3892, 3.881e-06
1.3992, 3.9685e-06
1.40919, 4.06287e-06
1.41918, 4.161e-06
1.42918, 4.25975e-06
1.43917, 4.35038e-06
1.44917, 4.45538e-06
1.45916, 4.56038e-06
1.46915, 4.65601e-06
1.47915, 4.764759999999999e-06
1.48914, 4.868509999999999e-06
1.49914, 4.981639999999999e-06
1.50913, 5.092889999999999e-06
1.51912, 5.20227e-06
1.52912, 5.310389999999999e-06
1.53911, 5.43602e-06
1.5491, 5.54665e-06
1.5591, 5.674769999999999e-06
1.56909, 5.79103e-06
1.57909, 5.9166499999999995e-06
1.58908, 6.0429e-06
1.59907, 6.18478e-06
1.60907, 6.316029999999999e-06
1.61906, 6.44916e-06
1.62906, 6.59166e-06
1.63905, 6.73291e-06
1.64904, 6.88542e-06
1.65904, 7.0366699999999995e-06
1.66903, 7.194169999999999e-06
1.67903, 7.35605e-06
1.68902, 7.533549999999999e-06
1.69901, 7.69855e-06
1.70901, 7.880429999999999e-06
1.719, 8.07731e-06
1.729, 8.267939999999999e-06
1.73899, 8.47794e-06
1.74898, 8.695449999999998e-06
1.75898, 8.917949999999998e-06
1.76897, 9.14733e-06
1.77896, 9.37546e-06
1.78896, 9.624209999999999e-06
1.79895, 9.866709999999999e-06
1.80895, 1.01311e-05
1.81894, 1.03923e-05
1.82893, 1.0657999999999999e-05
1.83893, 1.0926099999999999e-05
1.84892, 1.11761e-05
1.85892, 1.14649e-05
1.86891, 1.17161e-05
1.8789, 1.1977399999999998e-05
1.8889, 1.22474e-05
1.89889, 1.25355e-05
1.90889, 1.28336e-05
1.91888, 1.31486e-05
1.92887, 1.3456099999999998e-05
1.93887, 1.38143e-05
1.94886, 1.4164300000000001e-05
1.95885, 1.4547999999999999e-05
1.96885, 1.4942999999999999e-05
1.97884, 1.53718e-05
1.98884, 1.5838699999999998e-05
1.99883, 1.62846e-05
2.00882, 1.6828399999999996e-05
1.99883, 1.28658e-05
1.98884, 1.02095e-05
1.97884, 8.32825e-06
1.96885, 6.94697e-06
1.95885, 5.82821e-06
1.94886, 4.9907e-06
1.93887, 4.30944e-06
1.92887, 3.75943e-06
1.91888, 3.3156599999999996e-06
1.90889, 2.92192e-06
1.89889, 2.60942e-06
1.8889, 2.35347e-06
1.8789, 2.1190999999999998e-06
1.86891, 1.9328399999999998e-06
1.85892, 1.74222e-06
1.84892, 1.5909599999999998e-06
1.83893, 1.45971e-06
1.82893, 1.33596e-06
1.81894, 1.2347099999999999e-06
1.80895, 1.1465799999999998e-06
1.79895, 1.0522e-06
1.78896, 9.65953e-07
1.77896, 9.065769999999999e-07
1.76897, 8.37824e-07
1.75898, 7.771989999999999e-07
1.74898, 7.22198e-07
1.73899, 6.690719999999999e-07
1.729, 6.246969999999999e-07
1.719, 5.809469999999999e-07
1.70901, 5.35321e-07
1.69901, 4.93445e-07
1.68902, 4.49693e-07
1.67903, 4.13444e-07
1.66903, 3.8094299999999995e-07
1.65904, 3.44694e-07
1.64904, 3.0903599999999996e-07
1.63905, 2.89786e-07
1.62906, 2.52785e-07
1.61906, 2.2878499999999997e-07
1.60907, 1.9734699999999997e-07
1.59907, 1.75534e-07
1.58908, 1.44721e-07
1.57909, 1.2059599999999998e-07
1.56909, 9.62827e-08
1.5591, 7.30948e-08
1.5491, 4.77819e-08
1.53911, 2.6219099999999997e-08
1.52912, 6.46877e-09
1.51912, -1.30939e-08
1.50913, -3.73445e-08
1.49914, -5.72821e-08
1.48914, -7.453239999999999e-08
1.47915, -9.865769999999999e-08
1.46915, -1.15221e-07
1.45916, -1.27221e-07
1.44917, -1.55721e-07
1.43917, -1.7078399999999998e-07
1.42918, -1.94222e-07
1.41918, -2.05409e-07
1.40919, -2.25097e-07
1.3992, -2.45035e-07
1.3892, -2.59848e-07
1.37921, -2.78973e-07
1.36921, -3.00848e-07
1.35922, -3.07661e-07
1.34923, -3.26411e-07
1.33923, -3.40912e-07
1.32924, -3.63724e-07
1.31925, -3.76412e-07
1.30925, -3.88537e-07
1.29926, -4.11038e-07
1.28926, -4.22663e-07
1.27927, -4.40475e-07
1.26928, -4.6228799999999994e-07
1.25928, -4.74288e-07
1.24929, -4.91351e-07
1.23929, -5.075389999999999e-07
1.2293, -5.26477e-07
1.21931, -5.38977e-07
1.20931, -5.60477e-07
1.19932, -5.772899999999999e-07
1.18932, -5.89353e-07
1.17933, -6.034779999999999e-07
1.16934, -6.221029999999999e-07
1.15934, -6.41104e-07
1.14935, -6.52916e-07
1.13935, -6.75667e-07
1.12936, -6.91979e-07
1.11937, -7.103549999999999e-07
1.10937, -7.282300000000001e-07
1.09938, -7.39418e-07
1.08939, -7.618549999999999e-07
1.07939, -7.771059999999999e-07
1.0694, -7.93418e-07
1.0594, -8.14231e-07
1.04941, -8.279189999999999e-07
1.03942, -8.489189999999999e-07
1.02942, -8.707319999999999e-07
1.01943, -8.827949999999999e-07
1.00943, -9.002329999999999e-07
0.99944, -9.234199999999999e-07
0.989446, -9.44358e-07
0.979453, -9.55421e-07
0.969459, -9.78796e-07
0.959465, -9.94671e-07
0.949471, -1.01642e-06
0.939477, -1.0324199999999998e-06
0.929483, -1.0569200000000001e-06
0.919489, -1.0722400000000001e-06
0.909495, -1.09192e-06
0.899501, -1.11167e-06
0.889507, -1.1301699999999998e-06
0.879513, -1.14849e-06
0.86952, -1.16999e-06
0.859526, -1.18811e-06
0.849532, -1.21411e-06
0.839538, -1.23261e-06
0.829544, -1.2520500000000002e-06
0.81955, -1.2698e-06
0.809556, -1.2922999999999999e-06
0.799562, -1.30793e-06
0.789568, -1.3275499999999999e-06
0.779574, -1.3423e-06
0.769581, -1.36643e-06
0.759587, -1.3777999999999998e-06
0.749593, -1.40043e-06
0.739599, -1.4134299999999999e-06
0.729605, -1.4297999999999998e-06
0.719611, -1.44687e-06
0.709617, -1.4624299999999997e-06
0.699623, -1.4731199999999998e-06
0.689629, -1.48662e-06
0.679635, -1.50337e-06
0.669642, -1.5142999999999998e-06
0.659648, -1.51993e-06
0.649654, -1.5356199999999999e-06
0.63966, -1.5464899999999999e-06
0.629666, -1.5601199999999998e-06
0.619672, -1.57024e-06
0.609678, -1.58337e-06
0.599684, -1.5954299999999998e-06
0.58969, -1.60399e-06
0.579696, -1.61631e-06
0.569703, -1.62768e-06
0.559709, -1.63862e-06
0.549715, -1.64912e-06
0.539721, -1.65937e-06
0.529727, -1.6705599999999999e-06
0.519733, -1.67721e-06
0.509739, -1.68784e-06
0.499745, -1.69596e-06
0.489751, -1.70534e-06
0.479757, -1.7115899999999998e-06
0.469764, -1.7103399999999998e-06
0.45977, -1.7228399999999999e-06
0.449776, -1.7247099999999998e-06
0.439782, -1.7234599999999998e-06
0.429788, -1.72659e-06
0.419794, -1.7247099999999998e-06
0.4098, -1.72846e-06
0.399806, -1.7259599999999998e-06
0.389812, -1.7259599999999998e-06
0.379818, -1.7234599999999998e-06
0.369824, -1.71659e-06
0.35983, -1.71721e-06
0.349837, -1.70909e-06
0.339843, -1.70659e-06
0.329849, -1.7028399999999999e-06
0.319855, -1.69471e-06
0.309861, -1.69096e-06
0.299867, -1.68409e-06
0.289873, -1.6747099999999999e-06
0.279879, -1.67096e-06
0.269885, -1.6615899999999998e-06
0.259891, -1.6522099999999999e-06
0.249897, -1.64534e-06
0.239904, -1.6365899999999999e-06
0.22991, -1.6234599999999997e-06
0.219916, -1.6178399999999998e-06
0.209922, -1.60596e-06
0.199928, -1.5978399999999998e-06
0.189934, -1.58471e-06
0.17994, -1.5765899999999998e-06
0.169946, -1.56659e-06
0.159952, -1.55471e-06
0.149958, -1.5459599999999998e-06
0.139964, -1.54034e-06
0.129971, -1.52909e-06
0.119977, -1.5197099999999999e-06
0.109983, -1.51096e-06
0.099989, -1.5015899999999999e-06
0.089995, -1.49159e-06
0.080001, -1.48471e-06
0.0700074, -1.4765799999999998e-06
0.0600134, -1.46909e-06
0.0500195, -1.46158e-06
0.0400255, -1.4565799999999998e-06
0.0300315, -1.44783e-06
0.0200379, -1.44471e-06
0.0100439, -1.4347099999999999e-06
##END=$$ End of the data block
