##TITLE=Spectrum
##JCAMP-DX=5.00 $$ chemotion-converter-app (1.5.0)
##DATA TYPE=CYCLIC VOLTAMMETRY
##DATA CLASS=XYPOINTS
##ORIGIN=
##OWNER=
##CALCULATION_APPLIED_Y=True
##XUNITS=Voltage in V
##YUNITS=Current in A
##CYCLES=1
##TIME=14:12:35
##DATE=2019-10-28
##SCAN_RATE=2.000E-001
##SOFTWARE=PSTrace
##SOFTWARE_VERSION=5.4.1528.18404
##STEP_SIZE=1.000E-002
##VOLTAGE_START=0.000E+000
##VOLTAGE_LIMIT_ONE=-2.500E+000
##VOLTAGE_LIMIT_TWO=2.000E+000
##VOLTAGE_LIMIT_END=5.000E-001
##COMMENTS=p-Cl-Ph-CO2Me_MeCN.pssession
##FIRSTX=4.99413E-05
##LASTX=0.0100439
##MINX=-2.50842
##MAXX=2.00882
##MINY=-2.28535e-06
##MAXY=4.60038e-06
##NPOINTS=904
##FIRSTY=-5.17195e-07
##XUNITS=Voltage in V
##YUNITS=Current in A
##XYPOINTS=(XY..XY)
4.99413E-05, -5.17195e-07
-0.00994404, -3.75943e-07
-0.019938, -3.2656699999999996e-07
-0.0299316, -3.04692e-07
-0.0399256, -2.94068e-07
-0.0499196, -2.8719199999999997e-07
-0.0599135, -2.86723e-07
-0.0699075, -2.8578599999999996e-07
-0.0799013, -2.85973e-07
-0.0898951, -2.86536e-07
-0.0998891, -2.86723e-07
-0.109883, -2.88848e-07
-0.119877, -2.90598e-07
-0.129871, -2.92411e-07
-0.139865, -2.94473e-07
-0.149859, -2.9716099999999997e-07
-0.159853, -2.98786e-07
-0.169846, -3.01786e-07
-0.17984, -3.03786e-07
-0.189834, -3.05598e-07
-0.199828, -3.08473e-07
-0.209822, -3.1053599999999997e-07
-0.219816, -3.12911e-07
-0.22981, -3.15286e-07
-0.239804, -3.17099e-07
-0.249798, -3.19224e-07
-0.259792, -3.2116099999999997e-07
-0.269785, -3.23536e-07
-0.279779, -3.2566099999999994e-07
-0.289773, -3.2816099999999997e-07
-0.299767, -3.3016099999999996e-07
-0.309761, -3.3153599999999996e-07
-0.319755, -3.3328600000000004e-07
-0.329749, -3.35474e-07
-0.339743, -3.3709899999999994e-07
-0.349737, -3.39849e-07
-0.359731, -3.41849e-07
-0.369724, -3.4359899999999995e-07
-0.379718, -3.4622399999999994e-07
-0.389712, -3.4753699999999997e-07
-0.399706, -3.49849e-07
-0.4097, -3.52037e-07
-0.419694, -3.54037e-07
-0.429688, -3.56349e-07
-0.439682, -3.58724e-07
-0.449676, -3.61599e-07
-0.45967, -3.64599e-07
-0.469663, -3.67412e-07
-0.479657, -3.70099e-07
-0.489651, -3.73224e-07
-0.499645, -3.7709999999999996e-07
-0.509639, -3.8091199999999994e-07
-0.519633, -3.85662e-07
-0.529627, -3.90475e-07
-0.539621, -3.95162e-07
-0.549615, -4.00537e-07
-0.559609, -4.06538e-07
-0.569602, -4.1335e-07
-0.579596, -4.1997499999999995e-07
-0.58959, -4.2859999999999996e-07
-0.599584, -4.3772499999999996e-07
-0.609578, -4.4716299999999997e-07
-0.619572, -4.57351e-07
-0.629566, -4.6922599999999997e-07
-0.63956, -4.80976e-07
-0.649554, -4.93664e-07
-0.659548, -5.05414e-07
-0.669541, -5.171019999999999e-07
-0.679535, -5.28289e-07
-0.689529, -5.37727e-07
-0.699523, -5.47102e-07
-0.709517, -5.54727e-07
-0.719511, -5.610399999999999e-07
-0.729505, -5.673519999999999e-07
-0.739499, -5.74853e-07
-0.749493, -5.82165e-07
-0.759487, -5.8979e-07
-0.769481, -5.98915e-07
-0.779474, -6.068529999999999e-07
-0.789468, -6.16291e-07
-0.799462, -6.22978e-07
-0.809456, -6.302279999999999e-07
-0.81945, -6.35541e-07
-0.829444, -6.38479e-07
-0.839438, -6.39479e-07
-0.849432, -6.39916e-07
-0.859426, -6.38541e-07
-0.86942, -6.36228e-07
-0.879413, -6.337909999999999e-07
-0.889407, -6.31103e-07
-0.899401, -6.29166e-07
-0.909395, -6.26478e-07
-0.919389, -6.244159999999999e-07
-0.929383, -6.22853e-07
-0.939377, -6.21541e-07
-0.949371, -6.20353e-07
-0.959365, -6.196029999999999e-07
-0.969359, -6.18978e-07
-0.979353, -6.183530000000001e-07
-0.989347, -6.18166e-07
-0.99934, -6.18166e-07
-1.00933, -6.183530000000001e-07
-1.01933, -6.183530000000001e-07
-1.02932, -6.19478e-07
-1.03932, -6.197279999999999e-07
-1.04931, -6.207909999999999e-07
-1.0593, -6.21166e-07
-1.0693, -6.225409999999999e-07
-1.07929, -6.237279999999999e-07
-1.08929, -6.25416e-07
-1.09928, -6.25916e-07
-1.10927, -6.287279999999999e-07
-1.11927, -6.297279999999999e-07
-1.12926, -6.32353e-07
-1.13926, -6.331659999999999e-07
-1.14925, -6.356039999999999e-07
-1.15924, -6.374159999999999e-07
-1.16924, -6.40291e-07
-1.17923, -6.41916e-07
-1.18922, -6.44729e-07
-1.19922, -6.46854e-07
-1.20921, -6.49791e-07
-1.21921, -6.52291e-07
-1.2292, -6.556039999999999e-07
-1.23919, -6.584159999999999e-07
-1.24919, -6.60791e-07
-1.25918, -6.63791e-07
-1.26918, -6.665410000000001e-07
-1.27917, -6.702289999999999e-07
-1.28916, -6.72541e-07
-1.29916, -6.76354e-07
-1.30915, -6.79354e-07
-1.31915, -6.825419999999999e-07
-1.32914, -6.861669999999999e-07
-1.33913, -6.895419999999999e-07
-1.34913, -6.93917e-07
-1.35912, -6.971669999999999e-07
-1.36911, -7.01105e-07
-1.37911, -7.050419999999999e-07
-1.3891, -7.097299999999999e-07
-1.3991, -7.139799999999999e-07
-1.40909, -7.18292e-07
-1.41908, -7.23417e-07
-1.42908, -7.2873e-07
-1.43907, -7.336049999999999e-07
-1.44907, -7.3873e-07
-1.45906, -7.44168e-07
-1.46905, -7.492299999999999e-07
-1.47905, -7.547299999999999e-07
-1.48904, -7.60918e-07
-1.49904, -7.65605e-07
-1.50903, -7.717309999999999e-07
-1.51902, -7.77356e-07
-1.52902, -7.82231e-07
-1.53901, -7.87481e-07
-1.549, -7.92543e-07
-1.559, -7.982309999999999e-07
-1.56899, -8.037309999999999e-07
-1.57899, -8.09106e-07
-1.58898, -8.13856e-07
-1.59897, -8.19044e-07
-1.60897, -8.252939999999999e-07
-1.61896, -8.29106e-07
-1.62896, -8.348569999999999e-07
-1.63895, -8.40732e-07
-1.64894, -8.45982e-07
-1.65894, -8.50982e-07
-1.66893, -8.575439999999999e-07
-1.67893, -8.62357e-07
-1.68892, -8.68545e-07
-1.69891, -8.74545e-07
-1.70891, -8.811699999999999e-07
-1.7189, -8.871069999999999e-07
-1.7289, -8.933569999999999e-07
-1.73889, -8.99733e-07
-1.74888, -9.057949999999999e-07
-1.75888, -9.1242e-07
-1.76887, -9.192949999999999e-07
-1.77886, -9.2617e-07
-1.78886, -9.32608e-07
-1.79885, -9.39046e-07
-1.80885, -9.45921e-07
-1.81884, -9.52671e-07
-1.82883, -9.59796e-07
-1.83883, -9.66046e-07
-1.84882, -9.731089999999999e-07
-1.85882, -9.803589999999999e-07
-1.86881, -9.879839999999999e-07
-1.8788, -9.95734e-07
-1.8888, -1.00355e-06
-1.89879, -1.01086e-06
-1.90879, -1.01886e-06
-1.91878, -1.0266699999999999e-06
-1.92877, -1.03461e-06
-1.93877, -1.04336e-06
-1.94876, -1.0518e-06
-1.95876, -1.06042e-06
-1.96875, -1.06867e-06
-1.97874, -1.0784899999999999e-06
-1.98874, -1.0874900000000001e-06
-1.99873, -1.09742e-06
-2.00872, -1.10792e-06
-2.01872, -1.11805e-06
-2.02871, -1.12905e-06
-2.03871, -1.1397999999999999e-06
-2.0487, -1.1518e-06
-2.05869, -1.16355e-06
-2.06869, -1.17642e-06
-2.07868, -1.18924e-06
-2.08868, -1.20324e-06
-2.09867, -1.21667e-06
-2.10866, -1.2318e-06
-2.11866, -1.24818e-06
-2.12865, -1.26468e-06
-2.13865, -1.28193e-06
-2.14864, -1.29993e-06
-2.15863, -1.31868e-06
-2.16863, -1.3383e-06
-2.17862, -1.35761e-06
-2.18861, -1.3781799999999999e-06
-2.19861, -1.39987e-06
-2.2086, -1.4201799999999998e-06
-2.2186, -1.44105e-06
-2.22859, -1.4623e-06
-2.23858, -1.48368e-06
-2.24858, -1.50437e-06
-2.25857, -1.52637e-06
-2.26857, -1.54793e-06
-2.27856, -1.5697399999999998e-06
-2.28855, -1.5917399999999998e-06
-2.29855, -1.6146799999999998e-06
-2.30854, -1.6374899999999997e-06
-2.31854, -1.66012e-06
-2.32853, -1.68418e-06
-2.33852, -1.70534e-06
-2.34852, -1.73096e-06
-2.35851, -1.75596e-06
-2.36851, -1.78347e-06
-2.3785, -1.81097e-06
-2.38849, -1.8390899999999998e-06
-2.39849, -1.86847e-06
-2.40848, -1.89972e-06
-2.41847, -1.93097e-06
-2.42847, -1.9640899999999997e-06
-2.43846, -1.99722e-06
-2.44846, -2.03284e-06
-2.45845, -2.0703399999999997e-06
-2.46844, -2.10909e-06
-2.47844, -2.1497199999999996e-06
-2.48843, -2.1922199999999997e-06
-2.49843, -2.2378499999999997e-06
-2.50842, -2.28535e-06
-2.49843, -1.9803399999999997e-06
-2.48843, -1.7697099999999998e-06
-2.47844, -1.60909e-06
-2.46844, -1.48221e-06
-2.45845, -1.37721e-06
-2.44846, -1.29033e-06
-2.43846, -1.2134599999999999e-06
-2.42847, -1.14846e-06
-2.41847, -1.0909500000000001e-06
-2.40848, -1.03845e-06
-2.39849, -9.90952e-07
-2.38849, -9.48452e-07
-2.3785, -9.09702e-07
-2.36851, -8.740759999999999e-07
-2.35851, -8.4095e-07
-2.34852, -8.103249999999999e-07
-2.33852, -7.80325e-07
-2.32853, -7.53449e-07
-2.31854, -7.27199e-07
-2.30854, -7.02823e-07
-2.29855, -6.79698e-07
-2.28855, -6.57823e-07
-2.27856, -6.371969999999999e-07
-2.26857, -6.17197e-07
-2.25857, -5.978210000000001e-07
-2.24858, -5.790709999999999e-07
-2.23858, -5.61571e-07
-2.22859, -5.453209999999999e-07
-2.2186, -5.296959999999999e-07
-2.2086, -5.14696e-07
-2.19861, -5.015709999999999e-07
-2.18861, -4.8907e-07
-2.17862, -4.771949999999999e-07
-2.16863, -4.65944e-07
-2.15863, -4.5594499999999997e-07
-2.14864, -4.45321e-07
-2.13865, -4.35944e-07
-2.12865, -4.2997499999999996e-07
-2.11866, -4.2209999999999995e-07
-2.10866, -4.14538e-07
-2.09867, -4.0797499999999995e-07
-2.08868, -4.00787e-07
-2.07868, -3.9441199999999995e-07
-2.06869, -3.87975e-07
-2.05869, -3.8235000000000003e-07
-2.0487, -3.76662e-07
-2.03871, -3.71162e-07
-2.02871, -3.65849e-07
-2.01872, -3.60849e-07
-2.00872, -3.55224e-07
-1.99873, -3.50537e-07
-1.98874, -3.45662e-07
-1.97874, -3.4078599999999997e-07
-1.96875, -3.36849e-07
-1.95876, -3.31724e-07
-1.94876, -3.27911e-07
-1.93877, -3.2334899999999997e-07
-1.92877, -3.19161e-07
-1.91878, -3.1497399999999997e-07
-1.90879, -3.1072399999999997e-07
-1.89879, -3.07286e-07
-1.8888, -3.03473e-07
-1.8788, -2.9991099999999996e-07
-1.86881, -2.96723e-07
-1.85882, -2.9247299999999995e-07
-1.84882, -2.89536e-07
-1.83883, -2.8578599999999996e-07
-1.82883, -2.82661e-07
-1.81884, -2.7934799999999997e-07
-1.80885, -2.7634799999999995e-07
-1.79885, -2.72973e-07
-1.78886, -2.7022299999999997e-07
-1.77886, -2.67035e-07
-1.76887, -2.64223e-07
-1.75888, -2.61535e-07
-1.74888, -2.5809799999999996e-07
-1.73889, -2.5491e-07
-1.7289, -2.5241e-07
-1.7189, -2.4991e-07
-1.70891, -2.47348e-07
-1.69891, -2.44035e-07
-1.68892, -2.4216e-07
-1.67893, -2.39722e-07
-1.66893, -2.36535e-07
-1.65894, -2.3409699999999998e-07
-1.64894, -2.31722e-07
-1.63895, -2.2922199999999999e-07
-1.62896, -2.2672199999999998e-07
-1.61896, -2.25222e-07
-1.60897, -2.22285e-07
-1.59897, -2.19785e-07
-1.58898, -2.1765999999999998e-07
-1.57899, -2.15035e-07
-1.56899, -2.1265899999999997e-07
-1.559, -2.1047199999999998e-07
-1.549, -2.07847e-07
-1.53901, -2.0647199999999997e-07
-1.52902, -2.04159e-07
-1.51902, -2.01659e-07
-1.50903, -1.99159e-07
-1.49904, -1.9628399999999999e-07
-1.48904, -1.94034e-07
-1.47905, -1.9147199999999998e-07
-1.46905, -1.89284e-07
-1.45906, -1.87097e-07
-1.44907, -1.8447199999999999e-07
-1.43907, -1.82284e-07
-1.42908, -1.79847e-07
-1.41908, -1.77596e-07
-1.40909, -1.74909e-07
-1.3991, -1.73159e-07
-1.3891, -1.70221e-07
-1.37911, -1.67659e-07
-1.36911, -1.65159e-07
-1.35912, -1.62909e-07
-1.34913, -1.6065899999999998e-07
-1.33913, -1.58284e-07
-1.32914, -1.55909e-07
-1.31915, -1.54409e-07
-1.30915, -1.5122099999999997e-07
-1.29916, -1.49346e-07
-1.28916, -1.46909e-07
-1.27917, -1.44908e-07
-1.26918, -1.42408e-07
-1.25918, -1.3978299999999998e-07
-1.24919, -1.37658e-07
-1.23919, -1.3553299999999997e-07
-1.2292, -1.33096e-07
-1.21921, -1.3084599999999998e-07
-1.20921, -1.2890799999999998e-07
-1.19922, -1.2597099999999998e-07
-1.18922, -1.24408e-07
-1.17923, -1.21533e-07
-1.16924, -1.19346e-07
-1.15924, -1.17221e-07
-1.14925, -1.1478299999999999e-07
-1.13926, -1.1228299999999999e-07
-1.12926, -1.10096e-07
-1.11927, -1.08033e-07
-1.10927, -1.0584499999999999e-07
-1.09928, -1.0265799999999999e-07
-1.08929, -1.00345e-07
-1.07929, -9.79702e-08
-1.0693, -9.572029999999999e-08
-1.0593, -9.228269999999999e-08
-1.04931, -9.04076e-08
-1.03932, -8.809509999999999e-08
-1.02932, -8.5345e-08
-1.01933, -8.31575e-08
-1.00933, -8.00949e-08
-0.99934, -7.746989999999999e-08
-0.989347, -7.47824e-08
-0.979353, -7.165739999999999e-08
-0.969359, -6.896979999999999e-08
-0.959365, -6.62823e-08
-0.949371, -6.33447e-08
-0.939377, -5.971969999999999e-08
-0.929383, -5.71572e-08
-0.919389, -5.3657099999999994e-08
-0.909395, -4.8719499999999995e-08
-0.899401, -4.43444e-08
-0.889407, -4.0156799999999996e-08
-0.879413, -3.42817e-08
-0.86942, -2.70941e-08
-0.859426, -1.83442e-08
-0.849432, -8.96883e-09
-0.839438, 3.09372e-09
-0.829444, 1.6334600000000002e-08
-0.81945, 3.17911e-08
-0.809456, 4.81351e-08
-0.799462, 6.47479e-08
-0.789468, 8.032930000000001e-08
-0.779474, 9.446079999999999e-08
-0.769481, 1.06605e-07
-0.759487, 1.1634899999999999e-07
-0.749493, 1.24449e-07
-0.739499, 1.31193e-07
-0.729505, 1.3718e-07
-0.719511, 1.42468e-07
-0.709517, 1.46293e-07
-0.699523, 1.50287e-07
-0.689529, 1.54274e-07
-0.679535, 1.5737400000000002e-07
-0.669541, 1.60318e-07
-0.659548, 1.62331e-07
-0.649554, 1.65299e-07
-0.63956, 1.6811200000000002e-07
-0.629566, 1.70409e-07
-0.619572, 1.73346e-07
-0.609578, 1.7522099999999998e-07
-0.599584, 1.7772199999999998e-07
-0.58959, 1.80284e-07
-0.579596, 1.8272199999999999e-07
-0.569602, 1.85347e-07
-0.559609, 1.87721e-07
-0.549615, 1.9134699999999997e-07
-0.539621, 1.93784e-07
-0.529627, 1.96472e-07
-0.519633, 1.9978399999999998e-07
-0.509639, 2.0247200000000001e-07
-0.499645, 2.0472199999999997e-07
-0.489651, 2.07284e-07
-0.479657, 2.09347e-07
-0.469663, 2.11972e-07
-0.45967, 2.1490999999999998e-07
-0.449676, 2.17097e-07
-0.439682, 2.1991e-07
-0.429688, 2.2159699999999997e-07
-0.419694, 2.23285e-07
-0.4097, 2.25722e-07
-0.399706, 2.2834699999999997e-07
-0.389712, 2.29472e-07
-0.379718, 2.31972e-07
-0.369724, 2.3366e-07
-0.359731, 2.3603499999999998e-07
-0.349737, 2.38285e-07
-0.339743, 2.3966e-07
-0.329749, 2.42597e-07
-0.319755, 2.43598e-07
-0.309761, 2.4616e-07
-0.299767, 2.4815999999999997e-07
-0.289773, 2.50723e-07
-0.279779, 2.5291e-07
-0.269785, 2.5459799999999996e-07
-0.259792, 2.56973e-07
-0.249798, 2.59223e-07
-0.239804, 2.6216e-07
-0.22981, 2.63848e-07
-0.219816, 2.66035e-07
-0.209822, 2.6865999999999997e-07
-0.199828, 2.7097300000000003e-07
-0.189834, 2.7290999999999997e-07
-0.17984, 2.7553499999999996e-07
-0.169846, 2.77723e-07
-0.159853, 2.80973e-07
-0.149859, 2.82973e-07
-0.139865, 2.85348e-07
-0.129871, 2.8784799999999997e-07
-0.119877, 2.90911e-07
-0.109883, 2.93098e-07
-0.0998891, 2.95598e-07
-0.0898951, 2.97723e-07
-0.0799013, 2.9991099999999996e-07
-0.0699075, 3.0278599999999997e-07
-0.0599135, 3.0459799999999996e-07
-0.0499196, 3.07848e-07
-0.0399256, 3.1053599999999997e-07
-0.0299316, 3.11599e-07
-0.019938, 3.1341099999999997e-07
-0.00994404, 3.14474e-07
4.99413E-05, 3.17036e-07
0.0100439, 3.1859900000000003e-07
0.0200379, 3.20224e-07
0.0300315, 3.21224e-07
0.0400255, 3.22661e-07
0.0500195, 3.23536e-07
0.0600134, 3.25411e-07
0.0700074, 3.25349e-07
0.080001, 3.26786e-07
0.089995, 3.26974e-07
0.099989, 3.27911e-07
0.109983, 3.29286e-07
0.119977, 3.30849e-07
0.129971, 3.30536e-07
0.139964, 3.32099e-07
0.149958, 3.33224e-07
0.159952, 3.3447399999999995e-07
0.169946, 3.34411e-07
0.17994, 3.3609899999999997e-07
0.189934, 3.37349e-07
0.199928, 3.38411e-07
0.209922, 3.40224e-07
0.219916, 3.4216099999999996e-07
0.22991, 3.43474e-07
0.239904, 3.46974e-07
0.249897, 3.49349e-07
0.259891, 3.53224e-07
0.269885, 3.5734900000000003e-07
0.279879, 3.61599e-07
0.289873, 3.6716199999999996e-07
0.299867, 3.73724e-07
0.309861, 3.81162e-07
0.319855, 3.9034999999999995e-07
0.329849, 4.006e-07
0.339843, 4.1247499999999997e-07
0.349837, 4.25538e-07
0.35983, 4.40413e-07
0.369824, 4.55976e-07
0.379818, 4.7316299999999996e-07
0.389812, 4.91664e-07
0.399806, 5.121019999999999e-07
0.4098, 5.30414e-07
0.419794, 5.510399999999999e-07
0.429788, 5.7104e-07
0.439782, 5.90603e-07
0.449776, 6.08791e-07
0.45977, 6.25791e-07
0.469764, 6.39166e-07
0.479757, 6.51104e-07
0.489751, 6.60979e-07
0.499745, 6.679169999999999e-07
0.509739, 6.72916e-07
0.519733, 6.741660000000001e-07
0.529727, 6.75292e-07
0.539721, 6.741660000000001e-07
0.549715, 6.71667e-07
0.559709, 6.68041e-07
0.569703, 6.64541e-07
0.579696, 6.60979e-07
0.58969, 6.560409999999999e-07
0.599684, 6.519789999999999e-07
0.609678, 6.466659999999999e-07
0.619672, 6.41541e-07
0.629666, 6.36541e-07
0.63966, 6.30666e-07
0.649654, 6.26353e-07
0.659648, 6.21541e-07
0.669642, 6.16666e-07
0.679635, 6.12416e-07
0.689629, 6.08603e-07
0.699623, 6.03415e-07
0.709617, 6.00415e-07
0.719611, 5.9804e-07
0.729605, 5.94728e-07
0.739599, 5.9229e-07
0.749593, 5.88915e-07
0.759587, 5.8704e-07
0.769581, 5.8479e-07
0.779574, 5.83165e-07
0.789568, 5.7979e-07
0.799562, 5.796649999999999e-07
0.809556, 5.78478e-07
0.81955, 5.77228e-07
0.829544, 5.7529e-07
0.839538, 5.75915e-07
0.849532, 5.75978e-07
0.859526, 5.75915e-07
0.86952, 5.76165e-07
0.879513, 5.75978e-07
0.889507, 5.769769999999999e-07
0.899501, 5.779149999999999e-07
0.909495, 5.799149999999999e-07
0.919489, 5.80478e-07
0.929483, 5.824780000000001e-07
0.939477, 5.832279999999999e-07
0.949471, 5.86603e-07
0.959465, 5.8679e-07
0.969459, 5.9129e-07
0.979453, 5.93353e-07
0.989446, 5.95228e-07
0.99944, 5.996649999999999e-07
1.00943, 6.031029999999999e-07
1.01943, 6.08041e-07
1.02942, 6.13603e-07
1.03942, 6.18978e-07
1.04941, 6.24353e-07
1.0594, 6.30916e-07
1.0694, 6.389160000000001e-07
1.07939, 6.45479e-07
1.08939, 6.53604e-07
1.09938, 6.62916e-07
1.10937, 6.712919999999999e-07
1.11937, 6.79917e-07
1.12936, 6.896039999999999e-07
1.13935, 6.991039999999999e-07
1.14935, 7.091049999999999e-07
1.15934, 7.18605e-07
1.16934, 7.30917e-07
1.17933, 7.41043e-07
1.18932, 7.50418e-07
1.19932, 7.619179999999999e-07
1.20931, 7.712929999999999e-07
1.21931, 7.837309999999999e-07
1.2293, 7.934809999999999e-07
1.23929, 8.049809999999999e-07
1.24929, 8.158559999999999e-07
1.25928, 8.26169e-07
1.26928, 8.35732e-07
1.27927, 8.46607e-07
1.28926, 8.564819999999999e-07
1.29926, 8.677949999999999e-07
1.30925, 8.801069999999999e-07
1.31925, 8.898569999999999e-07
1.32924, 9.00795e-07
1.33923, 9.12108e-07
1.34923, 9.24108e-07
1.35922, 9.35108e-07
1.36921, 9.46233e-07
1.37921, 9.56983e-07
1.3892, 9.69109e-07
1.3992, 9.81171e-07
1.40919, 9.93234e-07
1.41918, 1.00617e-06
1.42918, 1.0187299999999999e-06
1.43917, 1.03136e-06
1.44917, 1.0454799999999999e-06
1.45916, 1.0599799999999999e-06
1.46915, 1.07292e-06
1.47915, 1.0892999999999999e-06
1.48914, 1.10242e-06
1.49914, 1.11899e-06
1.50913, 1.13592e-06
1.51912, 1.15386e-06
1.52912, 1.1709899999999998e-06
1.53911, 1.1895500000000001e-06
1.5491, 1.20692e-06
1.5591, 1.2274899999999998e-06
1.56909, 1.24786e-06
1.57909, 1.2698e-06
1.58908, 1.29068e-06
1.59907, 1.3136799999999999e-06
1.60907, 1.33793e-06
1.61906, 1.3637399999999998e-06
1.62906, 1.38893e-06
1.63905, 1.4176200000000001e-06
1.64904, 1.44537e-06
1.65904, 1.47593e-06
1.66903, 1.5075499999999999e-06
1.67903, 1.54087e-06
1.68902, 1.5744899999999999e-06
1.69901, 1.6106799999999998e-06
1.70901, 1.6515899999999997e-06
1.719, 1.69096e-06
1.729, 1.73221e-06
1.73899, 1.7765899999999998e-06
1.74898, 1.8209599999999998e-06
1.75898, 1.87097e-06
1.76897, 1.91972e-06
1.77896, 1.97159e-06
1.78896, 2.0284699999999997e-06
1.79895, 2.08659e-06
1.80895, 2.15034e-06
1.81894, 2.2141e-06
1.82893, 2.28472e-06
1.83893, 2.35285e-06
1.84892, 2.4303499999999995e-06
1.85892, 2.5128499999999996e-06
1.86891, 2.5984799999999996e-06
1.8789, 2.6947299999999998e-06
1.8889, 2.79036e-06
1.89889, 2.89536e-06
1.90889, 3.0066099999999996e-06
1.91888, 3.12286e-06
1.92887, 3.2484899999999996e-06
1.93887, 3.37724e-06
1.94886, 3.51724e-06
1.95885, 3.6722399999999996e-06
1.96885, 3.83475e-06
1.97884, 4.00725e-06
1.98884, 4.19038e-06
1.99883, 4.392879999999999e-06
2.00882, 4.60038e-06
1.99883, 3.54287e-06
1.98884, 2.84973e-06
1.97884, 2.35285e-06
1.96885, 1.98347e-06
1.95885, 1.7015899999999999e-06
1.94886, 1.47659e-06
1.93887, 1.29596e-06
1.92887, 1.14908e-06
1.91888, 1.02845e-06
1.90889, 9.24077e-07
1.89889, 8.428259999999999e-07
1.8889, 7.665729999999999e-07
1.8789, 7.01573e-07
1.86891, 6.459470000000001e-07
1.85892, 5.99697e-07
1.84892, 5.54695e-07
1.83893, 5.15945e-07
1.82893, 4.84695e-07
1.81894, 4.54068e-07
1.80895, 4.2781799999999997e-07
1.79895, 4.00944e-07
1.78896, 3.74037e-07
1.77896, 3.5316199999999997e-07
1.76897, 3.34661e-07
1.75898, 3.15724e-07
1.74898, 3.0003600000000003e-07
1.73899, 2.84036e-07
1.729, 2.6734799999999997e-07
1.719, 2.53348e-07
1.70901, 2.40347e-07
1.69901, 2.2666e-07
1.68902, 2.15097e-07
1.67903, 2.02659e-07
1.66903, 1.91409e-07
1.65904, 1.8022199999999998e-07
1.64904, 1.6903399999999998e-07
1.63905, 1.5959599999999997e-07
1.62906, 1.49596e-07
1.61906, 1.40346e-07
1.60907, 1.29971e-07
1.59907, 1.2247099999999999e-07
1.58908, 1.12095e-07
1.57909, 1.0322000000000001e-07
1.56909, 9.50952e-08
1.5591, 8.7095e-08
1.5491, 7.94075e-08
1.53911, 6.94697e-08
1.52912, 6.303219999999999e-08
1.51912, 5.646969999999999e-08
1.50913, 4.8469499999999996e-08
1.49914, 4.20318e-08
1.48914, 3.63443e-08
1.47915, 2.87817e-08
1.46915, 2.2656699999999996e-08
1.45916, 1.5219e-08
1.44917, 1.0218899999999998e-08
1.43917, 2.99068e-09
1.42918, -3.07817e-09
1.41918, -9.784529999999999e-09
1.40919, -1.47284e-08
1.3992, -2.0384699999999997e-08
1.3892, -2.49535e-08
1.37921, -3.15724e-08
1.36921, -3.594739999999999e-08
1.35922, -4.1853799999999995e-08
1.34923, -4.72351e-08
1.33923, -5.25414e-08
1.32924, -5.71602e-08
1.31925, -6.251660000000001e-08
1.30925, -6.716669999999999e-08
1.29926, -7.107299999999999e-08
1.28926, -7.5923e-08
1.27927, -8.12794e-08
1.26928, -8.597939999999999e-08
1.25928, -8.99733e-08
1.24929, -9.50233e-08
1.23929, -9.979839999999999e-08
1.2293, -1.0391699999999999e-07
1.21931, -1.0756099999999999e-07
1.20931, -1.11592e-07
1.19932, -1.1632399999999999e-07
1.18932, -1.2015499999999998e-07
1.17933, -1.2343e-07
1.16934, -1.28686e-07
1.15934, -1.32086e-07
1.14935, -1.36468e-07
1.13935, -1.4069899999999998e-07
1.12936, -1.4333e-07
1.11937, -1.47149e-07
1.10937, -1.51518e-07
1.09938, -1.55131e-07
1.08939, -1.58393e-07
1.07939, -1.60534e-07
1.0694, -1.6459599999999997e-07
1.0594, -1.68221e-07
1.04941, -1.7222100000000002e-07
1.03942, -1.75659e-07
1.02942, -1.78097e-07
1.01943, -1.80847e-07
1.00943, -1.83972e-07
0.99944, -1.86347e-07
0.989446, -1.89659e-07
0.979453, -1.9240899999999999e-07
0.969459, -1.95972e-07
0.959465, -1.99659e-07
0.949471, -2.01972e-07
0.939477, -2.02847e-07
0.929483, -2.0559699999999998e-07
0.919489, -2.0872199999999998e-07
0.909495, -2.10847e-07
0.899501, -2.1322199999999998e-07
0.889507, -2.15222e-07
0.879513, -2.18785e-07
0.86952, -2.19472e-07
0.859526, -2.21847e-07
0.849532, -2.22785e-07
0.839538, -2.2440999999999998e-07
0.829544, -2.26847e-07
0.81955, -2.27722e-07
0.809556, -2.2928499999999998e-07
0.799562, -2.29597e-07
0.789568, -2.3166e-07
0.779574, -2.3234699999999998e-07
0.769581, -2.3316e-07
0.759587, -2.3509699999999998e-07
0.749593, -2.3591e-07
0.739599, -2.36847e-07
0.729605, -2.3778499999999998e-07
0.719611, -2.38285e-07
0.709617, -2.3978499999999997e-07
0.699623, -2.41285e-07
0.689629, -2.4328499999999997e-07
0.679635, -2.44347e-07
0.669642, -2.45347e-07
0.659648, -2.48223e-07
0.649654, -2.49785e-07
0.63966, -2.5222299999999994e-07
0.629666, -2.5416e-07
0.619672, -2.5691000000000004e-07
0.609678, -2.59973e-07
0.599684, -2.6340999999999995e-07
0.58969, -2.66598e-07
0.579696, -2.70098e-07
0.569703, -2.74223e-07
0.559709, -2.78098e-07
0.549715, -2.81723e-07
0.539721, -2.8497299999999997e-07
0.529727, -2.8866099999999997e-07
0.519733, -2.92286e-07
0.509739, -2.9609799999999996e-07
0.499745, -2.97973e-07
0.489751, -3.00286e-07
0.479757, -3.03161e-07
0.469764, -3.03848e-07
0.45977, -3.0597299999999996e-07
0.449776, -3.0703599999999997e-07
0.439782, -3.08161e-07
0.429788, -3.08974e-07
0.419794, -3.0903599999999996e-07
0.4098, -3.0923899999999995e-07
0.399806, -3.0922399999999996e-07
0.389812, -3.0972300000000003e-07
0.379818, -3.09661e-07
0.369824, -3.10349e-07
0.35983, -3.10036e-07
0.349837, -3.10474e-07
0.339843, -3.09911e-07
0.329849, -3.1053599999999997e-07
0.319855, -3.10286e-07
0.309861, -3.10598e-07
0.299867, -3.1072399999999997e-07
0.289873, -3.11224e-07
0.279879, -3.11599e-07
0.269885, -3.11661e-07
0.259891, -3.1191099999999997e-07
0.249897, -3.13161e-07
0.239904, -3.1391099999999996e-07
0.22991, -3.1484899999999996e-07
0.219916, -3.15536e-07
0.209922, -3.16286e-07
0.199928, -3.17599e-07
0.189934, -3.18161e-07
0.17994, -3.1897399999999996e-07
0.169946, -3.2066099999999994e-07
0.159952, -3.2166099999999996e-07
0.149958, -3.2328600000000003e-07
0.139964, -3.24411e-07
0.129971, -3.25286e-07
0.119977, -3.2653599999999995e-07
0.109983, -3.2834899999999997e-07
0.099989, -3.30224e-07
0.089995, -3.3109899999999997e-07
0.080001, -3.3241099999999997e-07
0.0700074, -3.32849e-07
0.0600134, -3.3447399999999995e-07
0.0500195, -3.3609899999999997e-07
0.0400255, -3.3709899999999994e-07
0.0300315, -3.3828599999999994e-07
0.0200379, -3.38849e-07
0.0100439, -3.4016099999999997e-07
##END=$$ End of the data block
