##TITLE=Spectrum
##JCAMP-DX=5.00 $$ chemotion-converter-app (1.1.0)
##DATA TYPE=CYCLIC VOLTAMMETRY
##DATA CLASS=XYPOINTS
##ORIGIN=
##OWNER=
##XUNITS=Voltage in V
##YUNITS=Current in A
##CYCLES=1
##TIME=14:12:35
##DATE=2019-10-28
##SCAN_RATE=2.000E-001
##SOFTWARE=PSTrace
##SOFTWARE_VERSION=5.4.1528.18404
##STEP_SIZE=1.000E-002
##VOLTAGE_START=0.000E+000
##VOLTAGE_LIMIT_ONE=-2.500E+000
##VOLTAGE_LIMIT_TWO=2.000E+000
##VOLTAGE_LIMIT_END=5.000E-001
##COMMENTS=/home/martint/dev/KIT/converter/chemotion-converter-app/test_files/data_files/CV/PalmSens/PSTrace-pssession/p-Cl-Ph-CO2Me_MeCN.pssession
##FIRSTX=4.99413E-05
##LASTX=0.0100439
##MINX=-2.7083
##MAXX=2.00882
##MINY=-0.000344724
##MAXY=1.42943e-05
##NPOINTS=944
##FIRSTY=-1.96347e-06
##XUNITS=Voltage in V
##YUNITS=Current in A
##XYPOINTS=(XY..XY)
4.99413E-05, -1.96347e-06
-0.00994404, -1.44408e-06
-0.019938, -1.24908e-06
-0.0299316, -1.15408e-06
-0.0399256, -1.10158e-06
-0.0499196, -1.07283e-06
-0.0599135, -1.0559499999999998e-06
-0.0699075, -1.05033e-06
-0.0799013, -1.04845e-06
-0.0898951, -1.0497e-06
-0.0998891, -1.05345e-06
-0.109883, -1.0597e-06
-0.119877, -1.0672e-06
-0.129871, -1.0734499999999999e-06
-0.139865, -1.08158e-06
-0.149859, -1.0909500000000001e-06
-0.159853, -1.09783e-06
-0.169846, -1.1065799999999998e-06
-0.17984, -1.11158e-06
-0.189834, -1.1196999999999998e-06
-0.199828, -1.12846e-06
-0.209822, -1.1334599999999998e-06
-0.219816, -1.13971e-06
-0.22981, -1.1453299999999998e-06
-0.239804, -1.15033e-06
-0.249798, -1.1547099999999998e-06
-0.259792, -1.1603300000000001e-06
-0.269785, -1.16471e-06
-0.279779, -1.16846e-06
-0.289773, -1.17096e-06
-0.299767, -1.17408e-06
-0.309761, -1.1759599999999998e-06
-0.319755, -1.17908e-06
-0.329749, -1.1803300000000001e-06
-0.339743, -1.18346e-06
-0.349737, -1.18471e-06
-0.359731, -1.18596e-06
-0.369724, -1.1853299999999999e-06
-0.379718, -1.1872100000000001e-06
-0.389712, -1.1890799999999998e-06
-0.399706, -1.18846e-06
-0.4097, -1.1890799999999998e-06
-0.419694, -1.1890799999999998e-06
-0.429688, -1.18846e-06
-0.439682, -1.18971e-06
-0.449676, -1.18846e-06
-0.45967, -1.1890799999999998e-06
-0.469663, -1.18971e-06
-0.479657, -1.18846e-06
-0.489651, -1.1890799999999998e-06
-0.499645, -1.19033e-06
-0.509639, -1.19033e-06
-0.519633, -1.19283e-06
-0.529627, -1.19283e-06
-0.539621, -1.1934599999999998e-06
-0.549615, -1.19658e-06
-0.559609, -1.19971e-06
-0.569602, -1.20408e-06
-0.579596, -1.2090799999999999e-06
-0.58959, -1.21408e-06
-0.599584, -1.22096e-06
-0.609578, -1.22533e-06
-0.619572, -1.2334599999999999e-06
-0.629566, -1.24283e-06
-0.63956, -1.25283e-06
-0.649554, -1.26096e-06
-0.659548, -1.27033e-06
-0.669541, -1.27783e-06
-0.679535, -1.28533e-06
-0.689529, -1.29096e-06
-0.699523, -1.29471e-06
-0.709517, -1.29658e-06
-0.719511, -1.29596e-06
-0.729505, -1.29408e-06
-0.739499, -1.29096e-06
-0.749493, -1.28533e-06
-0.759487, -1.2797099999999999e-06
-0.769481, -1.2728299999999999e-06
-0.779474, -1.26596e-06
-0.789468, -1.25908e-06
-0.799462, -1.2559599999999999e-06
-0.809456, -1.2503299999999999e-06
-0.81945, -1.24471e-06
-0.829444, -1.2403299999999998e-06
-0.839438, -1.2372099999999998e-06
-0.849432, -1.23408e-06
-0.859426, -1.2297100000000001e-06
-0.86942, -1.22721e-06
-0.879413, -1.22471e-06
-0.889407, -1.22221e-06
-0.899401, -1.21846e-06
-0.909395, -1.21783e-06
-0.919389, -1.2147099999999998e-06
-0.929383, -1.2134599999999999e-06
-0.939377, -1.21158e-06
-0.949371, -1.2103299999999999e-06
-0.959365, -1.20971e-06
-0.969359, -1.2090799999999999e-06
-0.979353, -1.2084600000000001e-06
-0.989347, -1.2065799999999999e-06
-0.99934, -1.2065799999999999e-06
-1.00933, -1.20533e-06
-1.01933, -1.20533e-06
-1.02932, -1.20471e-06
-1.03932, -1.20533e-06
-1.04931, -1.20471e-06
-1.0593, -1.20533e-06
-1.0693, -1.20596e-06
-1.07929, -1.20596e-06
-1.08929, -1.2065799999999999e-06
-1.09928, -1.20721e-06
-1.10927, -1.20721e-06
-1.11927, -1.2084600000000001e-06
-1.12926, -1.2103299999999999e-06
-1.13926, -1.2103299999999999e-06
-1.14925, -1.2134599999999999e-06
-1.15924, -1.21283e-06
-1.16924, -1.2159599999999998e-06
-1.17923, -1.21846e-06
-1.18922, -1.2203299999999998e-06
-1.19922, -1.2203299999999998e-06
-1.20921, -1.22221e-06
-1.21921, -1.22596e-06
-1.2292, -1.22783e-06
-1.23919, -1.2284600000000001e-06
-1.24919, -1.23096e-06
-1.25918, -1.23283e-06
-1.26918, -1.23533e-06
-1.27917, -1.23783e-06
-1.28916, -1.2384599999999998e-06
-1.29916, -1.24096e-06
-1.30915, -1.24346e-06
-1.31915, -1.24596e-06
-1.32914, -1.24908e-06
-1.33913, -1.2515799999999999e-06
-1.34913, -1.2547099999999999e-06
-1.35912, -1.2572099999999999e-06
-1.36911, -1.26346e-06
-1.37911, -1.26721e-06
-1.3891, -1.27221e-06
-1.3991, -1.2784599999999999e-06
-1.40909, -1.28408e-06
-1.41908, -1.29033e-06
-1.42908, -1.29658e-06
-1.43907, -1.3009599999999999e-06
-1.44907, -1.30471e-06
-1.45906, -1.3084599999999998e-06
-1.46905, -1.31346e-06
-1.47905, -1.31783e-06
-1.48904, -1.3228299999999998e-06
-1.49904, -1.3284599999999998e-06
-1.50903, -1.33471e-06
-1.51902, -1.3422099999999999e-06
-1.52902, -1.3522099999999998e-06
-1.53901, -1.3628299999999999e-06
-1.549, -1.37721e-06
-1.559, -1.3909599999999999e-06
-1.56899, -1.4109599999999999e-06
-1.57899, -1.43283e-06
-1.58898, -1.4603399999999999e-06
-1.59897, -1.49346e-06
-1.60897, -1.53346e-06
-1.61896, -1.58659e-06
-1.62896, -1.65096e-06
-1.63895, -1.73909e-06
-1.64894, -1.85472e-06
-1.65894, -2.00972e-06
-1.66893, -2.2234699999999996e-06
-1.67893, -2.5165999999999998e-06
-1.68892, -2.9228599999999997e-06
-1.69891, -3.48599e-06
-1.70891, -4.269129999999999e-06
-1.7189, -5.35039e-06
-1.7289, -6.8354199999999995e-06
-1.73889, -8.85857e-06
-1.74888, -1.15824e-05
-1.75888, -1.5174899999999998e-05
-1.76887, -1.98275e-05
-1.77886, -2.56848e-05
-1.78886, -3.28849e-05
-1.79885, -4.1503799999999994e-05
-1.80885, -5.14914e-05
-1.81884, -6.27916e-05
-1.82883, -7.53918e-05
-1.83883, -8.90295e-05
-1.84882, -0.000103736
-1.85882, -0.00011923
-1.86881, -0.000135436
-1.8788, -0.000152205
-1.8888, -0.00016923699999999998
-1.89879, -0.000186034
-1.90879, -0.000203597
-1.91878, -0.00022066
-1.92877, -0.000237785
-1.93877, -0.000254348
-1.94876, -0.000270473
-1.95876, -0.000285661
-1.96875, -0.000299536
-1.97874, -0.000312599
-1.98874, -0.000323786
-1.99873, -0.00033328599999999997
-2.00872, -0.00034009899999999996
-2.01872, -0.000343912
-2.02871, -0.000344724
-2.03871, -0.000341099
-2.0487, -0.00033284899999999997
-2.05869, -0.000320224
-2.06869, -0.000303473
-2.07868, -0.000284848
-2.08868, -0.000265348
-2.09867, -0.000246285
-2.10866, -0.000229472
-2.11866, -0.000215972
-2.12865, -0.00020740899999999998
-2.13865, -0.000202784
-2.14864, -0.000200534
-2.15863, -0.000200222
-2.16863, -0.000200847
-2.17862, -0.000203472
-2.18861, -0.000207909
-2.19861, -0.00021391
-2.2086, -0.000222097
-2.2186, -0.000231347
-2.22859, -0.00024178499999999998
-2.23858, -0.00025341
-2.24858, -0.00026516
-2.25857, -0.000277598
-2.26857, -0.000289723
-2.27856, -0.000301348
-2.28855, -0.00031291099999999997
-2.29855, -0.000322849
-2.30854, -0.00033166099999999997
-2.31854, -0.000338286
-2.32853, -0.00034216199999999997
-2.33852, -0.00034384899999999997
-2.34852, -0.000341912
-2.35851, -0.000336661
-2.36851, -0.00032553599999999997
-2.3785, -0.00031559899999999996
-2.38849, -0.000306848
-2.39849, -0.000298723
-2.40848, -0.000291536
-2.41847, -0.000285286
-2.42847, -0.00027941099999999997
-2.43846, -0.000273973
-2.44846, -0.000269035
-2.45845, -0.00026441
-2.46844, -0.000260223
-2.47844, -0.00025628500000000003
-2.48843, -0.000252598
-2.49843, -0.000249223
-2.50842, -0.000245723
-2.51841, -0.000242723
-2.52841, -0.00023978499999999998
-2.5384, -0.000236347
-2.5484, -0.000233972
-2.55839, -0.00023166
-2.56838, -0.000228972
-2.57838, -0.000226785
-2.58837, -0.00022465999999999998
-2.59836, -0.000222597
-2.60836, -0.00022047199999999999
-2.61835, -0.000218347
-2.62835, -0.00021665999999999998
-2.63834, -0.000214722
-2.64833, -0.000212847
-2.65833, -0.000211222
-2.66832, -0.000209597
-2.67832, -0.000208097
-2.68831, -0.000206659
-2.6983, -0.00020478399999999998
-2.7083, -0.000203659
-2.6983, -0.000201847
-2.68831, -0.000200784
-2.67832, -0.000199472
-2.66832, -0.00019778399999999998
-2.65833, -0.00019678399999999998
-2.64833, -0.000195597
-2.63834, -0.00019415899999999998
-2.62835, -0.00019315899999999998
-2.61835, -0.00019190899999999998
-2.60836, -0.00019090899999999998
-2.59836, -0.000189847
-2.58837, -0.000188722
-2.57838, -0.00018778399999999998
-2.56838, -0.000186972
-2.55839, -0.00018590899999999997
-2.5484, -0.00018478399999999998
-2.5384, -0.000184034
-2.52841, -0.00018290899999999998
-2.51841, -0.00018253399999999998
-2.50842, -0.00018128399999999998
-2.49843, -0.000180722
-2.48843, -0.00017978399999999997
-2.47844, -0.000178722
-2.46844, -0.000177909
-2.45845, -0.00017740899999999998
-2.44846, -0.00017653399999999997
-2.43846, -0.00017578399999999998
-2.42847, -0.000174721
-2.41847, -0.000173971
-2.40848, -0.00017190899999999998
-2.39849, -0.000170221
-2.38849, -0.00016872099999999999
-2.3785, -0.000166721
-2.36851, -0.00016478399999999999
-2.35851, -0.000162721
-2.34852, -0.00016040899999999997
-2.33852, -0.00015778399999999998
-2.32853, -0.000154721
-2.31854, -0.000150721
-2.30854, -0.000146221
-2.29855, -0.000140596
-2.28855, -0.00013415799999999997
-2.27856, -0.000126346
-2.26857, -0.000117471
-2.25857, -0.00010797
-2.24858, -9.72828e-05
-2.23858, -8.572009999999999e-05
-2.22859, -7.39698e-05
-2.2186, -6.16572e-05
-2.2086, -4.9406999999999996e-05
-2.19861, -3.7344499999999995e-05
-2.18861, -2.57816e-05
-2.17862, -1.54066e-05
-2.16863, -6.21891e-06
-2.15863, 1.15633e-06
-2.14864, 6.23448e-06
-2.13865, 8.84075e-06
-2.12865, 8.50949e-06
-2.11866, 5.715699999999999e-06
-2.10866, 1.29063e-06
-2.09867, -4.07195e-06
-2.08868, -9.24702e-06
-2.07868, -1.39783e-05
-2.06869, -1.84534e-05
-2.05869, -2.2434699999999997e-05
-2.0487, -2.60848e-05
-2.03871, -2.94661e-05
-2.02871, -3.22411e-05
-2.01872, -3.49724e-05
-2.00872, -3.70662e-05
-1.99873, -3.86725e-05
-1.98874, -4.0291200000000005e-05
-1.97874, -4.1291299999999995e-05
-1.96875, -4.19225e-05
-1.95876, -4.23288e-05
-1.94876, -4.2141299999999996e-05
-1.93877, -4.17413e-05
-1.92877, -4.0803800000000004e-05
-1.91878, -3.951e-05
-1.90879, -3.7928699999999995e-05
-1.89879, -3.59849e-05
-1.8888, -3.37411e-05
-1.8788, -3.13786e-05
-1.86881, -2.88348e-05
-1.85882, -2.6166e-05
-1.84882, -2.3459700000000002e-05
-1.83883, -2.0753399999999997e-05
-1.82883, -1.80722e-05
-1.81884, -1.5497099999999998e-05
-1.80885, -1.30596e-05
-1.79885, -1.08345e-05
-1.78886, -8.85952e-06
-1.77886, -7.15948e-06
-1.76887, -5.746959999999999e-06
-1.75888, -4.58446e-06
-1.74888, -3.66569e-06
-1.73889, -2.90318e-06
-1.7289, -2.32191e-06
-1.7189, -1.8718999999999998e-06
-1.70891, -1.46158e-06
-1.69891, -1.15158e-06
-1.68892, -9.00327e-07
-1.67893, -6.965729999999999e-07
-1.66893, -5.32821e-07
-1.65894, -4.0031899999999995e-07
-1.64894, -2.94068e-07
-1.63895, -2.09067e-07
-1.62896, -1.4156599999999999e-07
-1.61896, -8.343939999999999e-08
-1.60897, -3.92194e-08
-1.59897, -1.71876e-09
-1.58898, 2.84066e-08
-1.57899, 5.57196e-08
-1.56899, 7.66573e-08
-1.559, 9.71577e-08
-1.549, 1.1653299999999999e-07
-1.53901, 1.37721e-07
-1.52902, 1.60971e-07
-1.51902, 1.8640899999999999e-07
-1.50903, 2.1690999999999997e-07
-1.49904, 2.5391000000000003e-07
-1.48904, 3.0003600000000003e-07
-1.47905, 3.57287e-07
-1.46905, 4.2953799999999996e-07
-1.45906, 5.215389999999999e-07
-1.44907, 6.36478e-07
-1.43907, 7.82856e-07
-1.42908, 9.517959999999999e-07
-1.41908, 1.1483e-06
-1.40909, 1.35074e-06
-1.3991, 1.54187e-06
-1.3891, 1.7034299999999998e-06
-1.37911, 1.81472e-06
-1.36911, 1.86972e-06
-1.35912, 1.87721e-06
-1.34913, 1.84597e-06
-1.33913, 1.7903399999999999e-06
-1.32914, 1.7240899999999999e-06
-1.31915, 1.65284e-06
-1.30915, 1.58534e-06
-1.29916, 1.5215799999999998e-06
-1.28916, 1.46283e-06
-1.27917, 1.40846e-06
-1.26918, 1.36221e-06
-1.25918, 1.3203299999999999e-06
-1.24919, 1.28346e-06
-1.23919, 1.24846e-06
-1.2292, 1.22096e-06
-1.21921, 1.19533e-06
-1.20921, 1.1734599999999998e-06
-1.19922, 1.15721e-06
-1.18922, 1.14158e-06
-1.17923, 1.1265799999999998e-06
-1.16924, 1.11408e-06
-1.15924, 1.0996999999999998e-06
-1.14925, 1.0872e-06
-1.13926, 1.0746999999999998e-06
-1.12926, 1.06345e-06
-1.11927, 1.0546999999999998e-06
-1.10927, 1.0472e-06
-1.09928, 1.04033e-06
-1.08929, 1.03783e-06
-1.07929, 1.0359499999999998e-06
-1.0693, 1.03658e-06
-1.0593, 1.03908e-06
-1.04931, 1.04345e-06
-1.03932, 1.04595e-06
-1.02932, 1.05095e-06
-1.01933, 1.05533e-06
-1.00933, 1.05908e-06
-0.99934, 1.0640799999999998e-06
-0.989347, 1.06908e-06
-0.979353, 1.0734499999999999e-06
-0.969359, 1.0797e-06
-0.959365, 1.0853299999999998e-06
-0.949371, 1.09221e-06
-0.939377, 1.0996999999999998e-06
-0.929383, 1.10595e-06
-0.919389, 1.1159499999999999e-06
-0.909395, 1.1228299999999998e-06
-0.899401, 1.13158e-06
-0.889407, 1.14033e-06
-0.879413, 1.1465799999999998e-06
-0.86942, 1.15596e-06
-0.859426, 1.16345e-06
-0.849432, 1.1722099999999998e-06
-0.839438, 1.18158e-06
-0.829444, 1.19658e-06
-0.81945, 1.2097e-06
-0.809456, 1.22408e-06
-0.799462, 1.23971e-06
-0.789468, 1.25783e-06
-0.779474, 1.2772099999999999e-06
-0.769481, 1.29471e-06
-0.759487, 1.3097099999999998e-06
-0.749493, 1.3253299999999998e-06
-0.739499, 1.3390799999999999e-06
-0.729505, 1.3484599999999998e-06
-0.719511, 1.35533e-06
-0.709517, 1.36096e-06
-0.699523, 1.36471e-06
-0.689529, 1.37033e-06
-0.679535, 1.37846e-06
-0.669541, 1.3853299999999999e-06
-0.659548, 1.3965799999999998e-06
-0.649554, 1.4078299999999999e-06
-0.63956, 1.42533e-06
-0.629566, 1.4428399999999998e-06
-0.619572, 1.45971e-06
-0.609578, 1.4803299999999998e-06
-0.599584, 1.4984599999999999e-06
-0.58959, 1.5153399999999998e-06
-0.579596, 1.53159e-06
-0.569602, 1.5447099999999999e-06
-0.559609, 1.5578399999999998e-06
-0.549615, 1.57159e-06
-0.539621, 1.58346e-06
-0.529627, 1.59346e-06
-0.519633, 1.60659e-06
-0.509639, 1.61596e-06
-0.499645, 1.62596e-06
-0.489651, 1.63596e-06
-0.479657, 1.64721e-06
-0.469663, 1.65721e-06
-0.45967, 1.66784e-06
-0.449676, 1.6790899999999999e-06
-0.439682, 1.68971e-06
-0.429688, 1.7009599999999998e-06
-0.419694, 1.71221e-06
-0.4097, 1.7240899999999999e-06
-0.399706, 1.73784e-06
-0.389712, 1.7509699999999999e-06
-0.379718, 1.7672099999999998e-06
-0.369724, 1.78534e-06
-0.359731, 1.80284e-06
-0.349737, 1.82221e-06
-0.339743, 1.84284e-06
-0.329749, 1.8590899999999998e-06
-0.319755, 1.87597e-06
-0.309761, 1.89284e-06
-0.299767, 1.9072199999999998e-06
-0.289773, 1.9215899999999997e-06
-0.279779, 1.9378399999999997e-06
-0.269785, 1.94659e-06
-0.259792, 1.95222e-06
-0.249798, 1.9572199999999998e-06
-0.239804, 1.95409e-06
-0.22981, 1.94972e-06
-0.219816, 1.94222e-06
-0.209822, 1.93534e-06
-0.199828, 1.92784e-06
-0.189834, 1.92222e-06
-0.17984, 1.92034e-06
-0.169846, 1.91784e-06
-0.159853, 1.91847e-06
-0.149859, 1.92222e-06
-0.139865, 1.92847e-06
-0.129871, 1.93659e-06
-0.119877, 1.94909e-06
-0.109883, 1.96284e-06
-0.0998891, 1.9778399999999998e-06
-0.0898951, 1.9953399999999996e-06
-0.0799013, 2.00909e-06
-0.0699075, 2.0072199999999997e-06
-0.0599135, 2.00159e-06
-0.0499196, 1.98909e-06
-0.0399256, 1.97034e-06
-0.0299316, 1.95097e-06
-0.019938, 1.93534e-06
-0.00994404, 1.9165899999999997e-06
4.99413E-05, 1.9022199999999999e-06
0.0100439, 1.89097e-06
0.0200379, 1.8778399999999999e-06
0.0300315, 1.86722e-06
0.0400255, 1.86159e-06
0.0500195, 1.85222e-06
0.0600134, 1.8478399999999997e-06
0.0700074, 1.84346e-06
0.080001, 1.8409699999999998e-06
0.089995, 1.8378399999999998e-06
0.099989, 1.84034e-06
0.109983, 1.8409699999999998e-06
0.119977, 1.84597e-06
0.129971, 1.85159e-06
0.139964, 1.8597099999999998e-06
0.149958, 1.86846e-06
0.159952, 1.8790899999999999e-06
0.169946, 1.89159e-06
0.17994, 1.90284e-06
0.189934, 1.9165899999999997e-06
0.199928, 1.93409e-06
0.209922, 1.95097e-06
0.219916, 1.97034e-06
0.22991, 1.98972e-06
0.239904, 2.01097e-06
0.249897, 2.0309699999999997e-06
0.259891, 2.05534e-06
0.269885, 2.0784699999999997e-06
0.279879, 2.10534e-06
0.289873, 2.13097e-06
0.299867, 2.1634699999999997e-06
0.309861, 2.1953499999999997e-06
0.319855, 2.2353499999999997e-06
0.329849, 2.27972e-06
0.339843, 2.32847e-06
0.349837, 2.3834699999999997e-06
0.35983, 2.44972e-06
0.369824, 2.5222299999999997e-06
0.379818, 2.61098e-06
0.389812, 2.7141e-06
0.399806, 2.8347299999999997e-06
0.4098, 2.98786e-06
0.419794, 3.16786e-06
0.429788, 3.38849e-06
0.439782, 3.65349e-06
0.449776, 3.97225e-06
0.45977, 4.33913e-06
0.469764, 4.757259999999999e-06
0.479757, 5.21414e-06
0.489751, 5.68415e-06
0.499745, 6.142909999999999e-06
0.509739, 6.561659999999999e-06
0.519733, 6.89979e-06
0.529727, 7.15167e-06
0.539721, 7.30917e-06
0.549715, 7.37105e-06
0.559709, 7.36667e-06
0.569703, 7.306049999999999e-06
0.579696, 7.20855e-06
0.58969, 7.096669999999999e-06
0.599684, 6.97855e-06
0.609678, 6.8560399999999995e-06
0.619672, 6.73792e-06
0.629666, 6.63229e-06
0.63966, 6.52916e-06
0.649654, 6.43353e-06
0.659648, 6.35916e-06
0.669642, 6.28041e-06
0.679635, 6.222279999999999e-06
0.689629, 6.1710299999999994e-06
0.699623, 6.13103e-06
0.709617, 6.08728e-06
0.719611, 6.057909999999999e-06
0.729605, 6.0235299999999996e-06
0.739599, 5.9879e-06
0.749593, 5.953529999999999e-06
0.759587, 5.91978e-06
0.769581, 5.868529999999999e-06
0.779574, 5.8379000000000005e-06
0.789568, 5.81665e-06
0.799562, 5.78228e-06
0.809556, 5.76415e-06
0.81955, 5.765399999999999e-06
0.829544, 5.74477e-06
0.839538, 5.7379e-06
0.849532, 5.74415e-06
0.859526, 5.724149999999999e-06
0.86952, 5.71228e-06
0.879513, 5.7160299999999995e-06
0.889507, 5.68602e-06
0.899501, 5.67102e-06
0.909495, 5.6679e-06
0.919489, 5.64227e-06
0.929483, 5.6366500000000005e-06
0.939477, 5.638519999999999e-06
0.949471, 5.62165e-06
0.959465, 5.6329e-06
0.969459, 5.65227e-06
0.979453, 5.6560199999999994e-06
0.989446, 5.682899999999999e-06
0.99944, 5.724149999999999e-06
1.00943, 5.7479e-06
1.01943, 5.80103e-06
1.02942, 5.85478e-06
1.03942, 5.904779999999999e-06
1.04941, 5.9753999999999996e-06
1.0594, 6.05728e-06
1.0694, 6.12791e-06
1.07939, 6.21603e-06
1.08939, 6.30916e-06
1.09938, 6.39916e-06
1.10937, 6.4954099999999995e-06
1.11937, 6.59541e-06
1.12936, 6.68666e-06
1.13935, 6.773539999999999e-06
1.14935, 6.859169999999999e-06
1.15934, 6.94479e-06
1.16934, 7.0123e-06
1.17933, 7.09792e-06
1.18932, 7.19542e-06
1.19932, 7.27542e-06
1.20931, 7.3922999999999995e-06
1.21931, 7.5354299999999994e-06
1.2293, 7.658559999999999e-06
1.23929, 7.83106e-06
1.24929, 8.03231e-06
1.25928, 8.22231e-06
1.26928, 8.45857e-06
1.27927, 8.726699999999999e-06
1.28926, 8.9867e-06
1.29926, 9.297959999999999e-06
1.30925, 9.628579999999998e-06
1.31925, 9.96671e-06
1.32924, 1.03386e-05
1.33923, 1.07399e-05
1.34923, 1.1137999999999999e-05
1.35922, 1.1561099999999998e-05
1.36921, 1.2001699999999999e-05
1.37921, 1.2433e-05
1.3892, 1.2841799999999998e-05
1.3992, 1.3238599999999999e-05
1.40919, 1.36136e-05
1.41918, 1.3878e-05
1.42918, 1.41118e-05
1.43917, 1.42749e-05
1.44917, 1.42943e-05
1.45916, 1.42418e-05
1.46915, 1.4112399999999999e-05
1.47915, 1.37955e-05
1.48914, 1.34518e-05
1.49914, 1.30324e-05
1.50913, 1.24999e-05
1.51912, 1.1976699999999998e-05
1.52912, 1.1439899999999999e-05
1.53911, 1.0853e-05
1.5491, 1.03361e-05
1.5591, 9.84421e-06
1.56909, 9.356709999999999e-06
1.57909, 8.9217e-06
1.58908, 8.53044e-06
1.59907, 8.18169e-06
1.60907, 7.796059999999999e-06
1.61906, 7.499799999999999e-06
1.62906, 7.251669999999999e-06
1.63905, 6.92354e-06
1.64904, 6.68792e-06
1.65904, 6.49854e-06
1.66903, 6.22666e-06
1.67903, 6.04666e-06
1.68902, 5.90728e-06
1.69901, 5.6891499999999996e-06
1.70901, 5.54352e-06
1.719, 5.42227e-06
1.729, 5.25414e-06
1.73899, 5.14102e-06
1.74898, 5.0416399999999996e-06
1.75898, 4.92351e-06
1.76897, 4.82164e-06
1.77896, 4.74288e-06
1.78896, 4.67663e-06
1.79895, 4.57226e-06
1.80895, 4.519129999999999e-06
1.81894, 4.488509999999999e-06
1.82893, 4.4147499999999995e-06
1.83893, 4.398509999999999e-06
1.84892, 4.39663e-06
1.85892, 4.365999999999999e-06
1.86891, 4.38975e-06
1.8789, 4.41288e-06
1.8889, 4.42725e-06
1.89889, 4.465379999999999e-06
1.90889, 4.5103799999999995e-06
1.91888, 4.5635099999999994e-06
1.92887, 4.632259999999999e-06
1.93887, 4.71851e-06
1.94886, 4.80726e-06
1.95885, 4.89914e-06
1.96885, 5.00914e-06
1.97884, 5.1485200000000005e-06
1.98884, 5.26227e-06
1.99883, 5.410389999999999e-06
2.00882, 5.57477e-06
1.99883, 4.34225e-06
1.98884, 3.57599e-06
1.97884, 3.04036e-06
1.96885, 2.62973e-06
1.95885, 2.3228499999999997e-06
1.94886, 2.07659e-06
1.93887, 1.87222e-06
1.92887, 1.70909e-06
1.91888, 1.5647099999999999e-06
1.90889, 1.44408e-06
1.89889, 1.3365800000000001e-06
1.8889, 1.24471e-06
1.8789, 1.17095e-06
1.86891, 1.0897e-06
1.85892, 1.02533e-06
1.84892, 9.684509999999998e-07
1.83893, 9.08451e-07
1.82893, 8.59702e-07
1.81894, 8.12824e-07
1.80895, 7.70323e-07
1.79895, 7.30948e-07
1.78896, 6.94697e-07
1.77896, 6.60946e-07
1.76897, 6.278229999999999e-07
1.75898, 5.93445e-07
1.74898, 5.67195e-07
1.73899, 5.35321e-07
1.729, 5.121949999999999e-07
1.719, 4.85945e-07
1.70901, 4.61569e-07
1.69901, 4.3782e-07
1.68902, 4.1469299999999994e-07
1.67903, 3.91569e-07
1.66903, 3.68787e-07
1.65904, 3.4922399999999995e-07
1.64904, 3.29099e-07
1.63905, 3.08723e-07
1.62906, 2.9191099999999995e-07
1.61906, 2.7278499999999996e-07
1.60907, 2.55348e-07
1.59907, 2.3834699999999998e-07
1.58908, 2.19722e-07
1.57909, 2.0253399999999998e-07
1.56909, 1.85847e-07
1.5591, 1.69096e-07
1.5491, 1.54096e-07
1.53911, 1.3815799999999999e-07
1.52912, 1.22283e-07
1.51912, 1.0696999999999998e-07
1.50913, 9.04701e-08
1.49914, 7.67825e-08
1.48914, 5.9782e-08
1.47915, 4.4906899999999994e-08
1.46915, 3.0594099999999995e-08
1.45916, 1.5969e-08
1.44917, -5.31197e-10
1.43917, -1.3719099999999999e-08
1.42918, -2.77348e-08
1.41918, -4.235379999999999e-08
1.40919, -5.72165e-08
1.3992, -7.09917e-08
1.3892, -8.7192e-08
1.37921, -1.0165499999999999e-07
1.36921, -1.1557999999999999e-07
1.35922, -1.31355e-07
1.34923, -1.4525499999999999e-07
1.33923, -1.6009899999999998e-07
1.32924, -1.74775e-07
1.31925, -1.8752499999999998e-07
1.30925, -1.9975599999999998e-07
1.29926, -2.1515999999999998e-07
1.28926, -2.3028499999999997e-07
1.27927, -2.45285e-07
1.26928, -2.59473e-07
1.25928, -2.73785e-07
1.24929, -2.88036e-07
1.23929, -3.01786e-07
1.2293, -3.16099e-07
1.21931, -3.2953599999999997e-07
1.20931, -3.4241199999999996e-07
1.19932, -3.5653699999999996e-07
1.18932, -3.6916199999999995e-07
1.17933, -3.83162e-07
1.16934, -3.9622499999999996e-07
1.15934, -4.081e-07
1.14935, -4.22225e-07
1.13935, -4.33913e-07
1.12936, -4.45726e-07
1.11937, -4.56351e-07
1.10937, -4.69288e-07
1.09938, -4.78476e-07
1.08939, -4.91601e-07
1.07939, -5.01101e-07
1.0694, -5.11664e-07
1.0594, -5.21727e-07
1.04941, -5.32852e-07
1.03942, -5.42227e-07
1.02942, -5.53227e-07
1.01943, -5.619769999999999e-07
1.00943, -5.71102e-07
0.99944, -5.8004e-07
0.989446, -5.88978e-07
0.979453, -5.977900000000001e-07
0.969459, -6.06478e-07
0.959465, -6.15416e-07
0.949471, -6.23916e-07
0.939477, -6.32353e-07
0.929483, -6.403539999999999e-07
0.919489, -6.49104e-07
0.909495, -6.560409999999999e-07
0.899501, -6.64541e-07
0.889507, -6.719789999999999e-07
0.879513, -6.78729e-07
0.86952, -6.84104e-07
0.859526, -6.895419999999999e-07
0.849532, -6.96417e-07
0.839538, -7.01167e-07
0.829544, -7.07855e-07
0.81955, -7.1273e-07
0.809556, -7.16355e-07
0.799562, -7.19792e-07
0.789568, -7.253549999999999e-07
0.779574, -7.273549999999999e-07
0.769581, -7.31542e-07
0.759587, -7.35105e-07
0.749593, -7.39293e-07
0.739599, -7.415429999999999e-07
0.729605, -7.442299999999999e-07
0.719611, -7.47168e-07
0.709617, -7.4948e-07
0.699623, -7.51605e-07
0.689629, -7.5448e-07
0.679635, -7.5673e-07
0.669642, -7.591679999999999e-07
0.659648, -7.606679999999999e-07
0.649654, -7.62043e-07
0.63966, -7.642299999999999e-07
0.629666, -7.661679999999999e-07
0.619672, -7.67105e-07
0.609678, -7.68981e-07
0.599684, -7.712929999999999e-07
0.58969, -7.73043e-07
0.579696, -7.75606e-07
0.569703, -7.77543e-07
0.559709, -7.795429999999999e-07
0.549715, -7.83231e-07
0.539721, -7.861059999999999e-07
0.529727, -7.88731e-07
0.519733, -7.91543e-07
0.509739, -7.95106e-07
0.499745, -7.98918e-07
0.489751, -8.024809999999999e-07
0.479757, -8.064189999999999e-07
0.469764, -8.09731e-07
0.45977, -8.14231e-07
0.449776, -8.19169e-07
0.439782, -8.23356e-07
0.429788, -8.26919e-07
0.419794, -8.322939999999999e-07
0.4098, -8.376069999999999e-07
0.399806, -8.429189999999999e-07
0.389812, -8.471689999999999e-07
0.379818, -8.52669e-07
0.369824, -8.577939999999999e-07
0.35983, -8.630449999999999e-07
0.349837, -8.687949999999999e-07
0.339843, -8.75295e-07
0.329849, -8.81482e-07
0.319855, -8.87982e-07
0.309861, -8.94607e-07
0.299867, -9.012329999999999e-07
0.289873, -9.082949999999999e-07
0.279879, -9.1517e-07
0.269885, -9.240449999999999e-07
0.259891, -9.3117e-07
0.249897, -9.39108e-07
0.239904, -9.469209999999999e-07
0.22991, -9.544829999999999e-07
0.219916, -9.63296e-07
0.209922, -9.71171e-07
0.199928, -9.79796e-07
0.189934, -9.88796e-07
0.17994, -9.97984e-07
0.169946, -1.00698e-06
0.159952, -1.01561e-06
0.149958, -1.02498e-06
0.139964, -1.03305e-06
0.129971, -1.0429799999999999e-06
0.119977, -1.0527299999999999e-06
0.109983, -1.06155e-06
0.099989, -1.0712999999999998e-06
0.089995, -1.0797399999999998e-06
0.080001, -1.09017e-06
0.0700074, -1.09886e-06
0.0600134, -1.10786e-06
0.0500195, -1.11761e-06
0.0400255, -1.12792e-06
0.0300315, -1.13724e-06
0.0200379, -1.1468e-06
0.0100439, -1.15599e-06
##END=$$ End of the data block
