##TITLE=Spectrum
##JCAMP-DX=5.00 $$ chemotion-converter-app (1.7.0)
##DATA TYPE=CYCLIC VOLTAMMETRY
##DATA CLASS=XYPOINTS
##ORIGIN=
##OWNER=
##XUNITS=Voltage in V
##YUNITS=Current in A
##CYCLES=1
##TIME=14:12:35
##DATE=2019-10-28
##SCAN_RATE=2.000E-001
##SOFTWARE=PSTrace
##SOFTWARE_VERSION=5.4.1528.18404
##STEP_SIZE=1.000E-002
##VOLTAGE_START=0.000E+000
##VOLTAGE_LIMIT_ONE=-2.500E+000
##VOLTAGE_LIMIT_TWO=2.000E+000
##VOLTAGE_LIMIT_END=5.000E-001
##COMMENTS=p-Cl-Ph-CO2Me_MeCN.pssession
##CALCULATION_APPLIED_Y=True
##FIRSTX=4.99413E-05
##LASTX=0.0100439
##MINX=-2.7083
##MAXX=2.00882
##MINY=-0.00036059899999999997
##MAXY=0.000227847
##NPOINTS=944
##FIRSTY=-1.0847e-06
##XUNITS=Voltage in V
##YUNITS=Current in A
##XYPOINTS=(XY..XY)
4.99413E-05, -1.0847e-06
-0.00994404, -7.840749999999999e-07
-0.019938, -6.80948e-07
-0.0299316, -6.365730000000001e-07
-0.0399256, -6.15947e-07
-0.0499196, -6.10322e-07
-0.0599135, -6.12822e-07
-0.0699075, -6.190719999999999e-07
-0.0799013, -6.30947e-07
-0.0898951, -6.43448e-07
-0.0998891, -6.590719999999999e-07
-0.109883, -6.75323e-07
-0.119877, -6.91574e-07
-0.129871, -7.09698e-07
-0.139865, -7.27199e-07
-0.149859, -7.465739999999999e-07
-0.159853, -7.6345e-07
-0.169846, -7.840749999999999e-07
-0.17984, -8.0345e-07
-0.189834, -8.197e-07
-0.199828, -8.378259999999999e-07
-0.209822, -8.57201e-07
-0.219816, -8.734509999999999e-07
-0.22981, -8.91576e-07
-0.239804, -9.072019999999999e-07
-0.249798, -9.253259999999999e-07
-0.259792, -9.403280000000001e-07
-0.269785, -9.57203e-07
-0.279779, -9.71577e-07
-0.289773, -9.86577e-07
-0.299767, -1.00033e-06
-0.309761, -1.0146999999999998e-06
-0.319755, -1.0271999999999999e-06
-0.329749, -1.04033e-06
-0.339743, -1.0528299999999999e-06
-0.349737, -1.06533e-06
-0.359731, -1.07658e-06
-0.369724, -1.08783e-06
-0.379718, -1.0996999999999998e-06
-0.389712, -1.11033e-06
-0.399706, -1.12033e-06
-0.4097, -1.13096e-06
-0.419694, -1.14033e-06
-0.429688, -1.14846e-06
-0.439682, -1.15783e-06
-0.449676, -1.16596e-06
-0.45967, -1.1759599999999998e-06
-0.469663, -1.18346e-06
-0.479657, -1.19283e-06
-0.489651, -1.2003299999999997e-06
-0.499645, -1.2078299999999999e-06
-0.509639, -1.21658e-06
-0.519633, -1.22471e-06
-0.529627, -1.23408e-06
-0.539621, -1.24283e-06
-0.549615, -1.2515799999999999e-06
-0.559609, -1.26096e-06
-0.569602, -1.27033e-06
-0.579596, -1.28221e-06
-0.58959, -1.29221e-06
-0.599584, -1.30346e-06
-0.609578, -1.3165800000000001e-06
-0.619572, -1.32783e-06
-0.629566, -1.3390799999999999e-06
-0.63956, -1.35033e-06
-0.649554, -1.3628299999999999e-06
-0.659548, -1.37158e-06
-0.669541, -1.37971e-06
-0.679535, -1.3865799999999999e-06
-0.689529, -1.39033e-06
-0.699523, -1.3934599999999998e-06
-0.709517, -1.3947099999999998e-06
-0.719511, -1.39533e-06
-0.729505, -1.39533e-06
-0.739499, -1.39408e-06
-0.749493, -1.39283e-06
-0.759487, -1.39158e-06
-0.769481, -1.3897099999999999e-06
-0.779474, -1.3884599999999999e-06
-0.789468, -1.3878299999999998e-06
-0.799462, -1.3859600000000001e-06
-0.809456, -1.3840799999999999e-06
-0.81945, -1.38346e-06
-0.829444, -1.38346e-06
-0.839438, -1.38221e-06
-0.849432, -1.38221e-06
-0.859426, -1.37971e-06
-0.86942, -1.37971e-06
-0.879413, -1.37908e-06
-0.889407, -1.37846e-06
-0.899401, -1.37846e-06
-0.909395, -1.37877e-06
-0.919389, -1.37908e-06
-0.929383, -1.37908e-06
-0.939377, -1.37908e-06
-0.949371, -1.38033e-06
-0.959365, -1.38096e-06
-0.969359, -1.38096e-06
-0.979353, -1.38096e-06
-0.989347, -1.38283e-06
-0.99934, -1.38283e-06
-1.00933, -1.3847100000000001e-06
-1.01933, -1.3847100000000001e-06
-1.02932, -1.3872099999999999e-06
-1.03932, -1.3878299999999998e-06
-1.04931, -1.38908e-06
-1.0593, -1.3909599999999999e-06
-1.0693, -1.3922099999999998e-06
-1.07929, -1.39283e-06
-1.08929, -1.39533e-06
-1.09928, -1.3978299999999998e-06
-1.10927, -1.39908e-06
-1.11927, -1.40221e-06
-1.12926, -1.40283e-06
-1.13926, -1.4065799999999999e-06
-1.14925, -1.40846e-06
-1.15924, -1.41033e-06
-1.16924, -1.4134599999999998e-06
-1.17923, -1.4147099999999998e-06
-1.18922, -1.41846e-06
-1.19922, -1.42096e-06
-1.20921, -1.42346e-06
-1.21921, -1.42533e-06
-1.2292, -1.4278299999999999e-06
-1.23919, -1.4309599999999999e-06
-1.24919, -1.4334599999999999e-06
-1.25918, -1.4359599999999998e-06
-1.26918, -1.4390899999999998e-06
-1.27917, -1.44158e-06
-1.28916, -1.44471e-06
-1.29916, -1.44846e-06
-1.30915, -1.4540900000000001e-06
-1.31915, -1.4572099999999999e-06
-1.32914, -1.46221e-06
-1.33913, -1.4659599999999998e-06
-1.34913, -1.47221e-06
-1.35912, -1.47784e-06
-1.36911, -1.48534e-06
-1.37911, -1.48908e-06
-1.3891, -1.4984599999999999e-06
-1.3991, -1.50221e-06
-1.40909, -1.5072099999999998e-06
-1.41908, -1.51159e-06
-1.42908, -1.51659e-06
-1.43907, -1.5197099999999999e-06
-1.44907, -1.5265899999999999e-06
-1.45906, -1.53221e-06
-1.46905, -1.5409600000000001e-06
-1.47905, -1.55034e-06
-1.48904, -1.55971e-06
-1.49904, -1.5709599999999998e-06
-1.50903, -1.58346e-06
-1.51902, -1.59971e-06
-1.52902, -1.6178399999999998e-06
-1.53901, -1.6378399999999998e-06
-1.549, -1.6622099999999998e-06
-1.559, -1.69346e-06
-1.56899, -1.7315899999999998e-06
-1.57899, -1.77909e-06
-1.58898, -1.8397199999999999e-06
-1.59897, -1.9215899999999997e-06
-1.60897, -2.02409e-06
-1.61896, -2.1634699999999997e-06
-1.62896, -2.35222e-06
-1.63895, -2.6097299999999997e-06
-1.64894, -2.96348e-06
-1.65894, -3.4472399999999996e-06
-1.66893, -4.116629999999999e-06
-1.67893, -5.035389999999999e-06
-1.68892, -6.28541e-06
-1.69891, -7.96981e-06
-1.70891, -1.02161e-05
-1.7189, -1.31643e-05
-1.7289, -1.69781e-05
-1.73889, -2.18347e-05
-1.74888, -2.7884799999999998e-05
-1.75888, -3.5209899999999996e-05
-1.76887, -4.39163e-05
-1.77886, -5.39289e-05
-1.78886, -6.53041e-05
-1.79885, -7.787309999999998e-05
-1.80885, -9.156699999999999e-05
-1.81884, -0.00010619899999999999
-1.82883, -0.00012171099999999999
-1.83883, -0.000137924
-1.84882, -0.000154649
-1.85882, -0.000171762
-1.86881, -0.000188722
-1.8788, -0.000206097
-1.8888, -0.00022365999999999998
-1.89879, -0.00024091
-1.90879, -0.00025791000000000003
-1.91878, -0.00027441
-1.92877, -0.000290286
-1.93877, -0.000305223
-1.94876, -0.00031922399999999995
-1.95876, -0.00033166099999999997
-1.96875, -0.000342536
-1.97874, -0.000351287
-1.98874, -0.000357474
-1.99873, -0.00036059899999999997
-2.00872, -0.000359849
-2.01872, -0.000354599
-2.02871, -0.00034453699999999996
-2.03871, -0.000329911
-2.0487, -0.00031203599999999996
-2.05869, -0.000292223
-2.06869, -0.00027116
-2.07868, -0.000249535
-2.08868, -0.000231535
-2.09867, -0.00022040999999999999
-2.10866, -0.000215222
-2.11866, -0.00021303499999999998
-2.12865, -0.00021265899999999997
-2.13865, -0.000214222
-2.14864, -0.000217847
-2.15863, -0.00022340999999999998
-2.16863, -0.000230847
-2.17862, -0.00023991
-2.18861, -0.00025003499999999996
-2.19861, -0.000261348
-2.2086, -0.000273348
-2.2186, -0.000285661
-2.22859, -0.000297973
-2.23858, -0.00031003599999999997
-2.24858, -0.000321599
-2.25857, -0.000331724
-2.26857, -0.000340662
-2.27856, -0.00034747399999999996
-2.28855, -0.00035197399999999996
-2.29855, -0.00035341199999999994
-2.30854, -0.00035159899999999997
-2.31854, -0.000346849
-2.32853, -0.000339599
-2.33852, -0.00033128599999999997
-2.34852, -0.000322911
-2.35851, -0.000314974
-2.36851, -0.000307848
-2.3785, -0.000301286
-2.38849, -0.000295411
-2.39849, -0.000290098
-2.40848, -0.000285161
-2.41847, -0.000280786
-2.42847, -0.000276598
-2.43846, -0.000272973
-2.44846, -0.000269473
-2.45845, -0.000266285
-2.46844, -0.00026341
-2.47844, -0.00026066
-2.48843, -0.000258098
-2.49843, -0.00025578499999999996
-2.50842, -0.000253723
-2.51841, -0.000251848
-2.52841, -0.000250098
-2.5384, -0.000248723
-2.5484, -0.000247723
-2.55839, -0.000246723
-2.56838, -0.00024603499999999997
-2.57838, -0.000245785
-2.58837, -0.000245785
-2.59836, -0.000246348
-2.60836, -0.00024722300000000003
-2.61835, -0.00024866
-2.62835, -0.00025053499999999997
-2.63834, -0.000252785
-2.64833, -0.000255723
-2.65833, -0.00025878500000000004
-2.66832, -0.000262785
-2.67832, -0.000267035
-2.68831, -0.00027178500000000003
-2.6983, -0.000276848
-2.7083, -0.000282536
-2.6983, -0.00026991
-2.68831, -0.00025966
-2.67832, -0.000250348
-2.66832, -0.000242097
-2.65833, -0.000234847
-2.64833, -0.00022866
-2.63834, -0.00022272199999999999
-2.62835, -0.000217722
-2.61835, -0.00021278499999999998
-2.60836, -0.00020878399999999997
-2.59836, -0.000205222
-2.58837, -0.000201784
-2.57838, -0.000198847
-2.56838, -0.000196659
-2.55839, -0.00019390899999999998
-2.5484, -0.00019190899999999998
-2.5384, -0.000190222
-2.52841, -0.000188722
-2.51841, -0.00018678399999999998
-2.50842, -0.000185722
-2.49843, -0.00018428399999999997
-2.48843, -0.00018290899999999998
-2.47844, -0.000181846
-2.46844, -0.000180784
-2.45845, -0.00017978399999999997
-2.44846, -0.00017903399999999998
-2.43846, -0.00017815899999999997
-2.42847, -0.000177659
-2.41847, -0.000176721
-2.40848, -0.00017578399999999998
-2.39849, -0.00017478399999999999
-2.38849, -0.000174096
-2.3785, -0.000173471
-2.36851, -0.00017265899999999997
-2.35851, -0.00017165899999999998
-2.34852, -0.00017065899999999998
-2.33852, -0.00016915899999999997
-2.32853, -0.00016778399999999998
-2.31854, -0.000166221
-2.30854, -0.000164409
-2.29855, -0.000161784
-2.28855, -0.000159096
-2.27856, -0.000155596
-2.26857, -0.000151159
-2.25857, -0.00014584599999999999
-2.24858, -0.000139408
-2.23858, -0.00013190799999999997
-2.22859, -0.000123283
-2.2186, -0.000113533
-2.2086, -0.00010309499999999999
-2.19861, -9.17827e-05
-2.18861, -8.003249999999999e-05
-2.17862, -6.803230000000001e-05
-2.16863, -5.62822e-05
-2.15863, -4.47819e-05
-2.14864, -3.39067e-05
-2.13865, -2.4219e-05
-2.12865, -1.61564e-05
-2.11866, -1.0031499999999999e-05
-2.10866, -6.90948e-06
-2.09867, -6.271969999999999e-06
-2.08868, -8.3595e-06
-2.07868, -1.2484599999999999e-05
-2.06869, -1.7690899999999997e-05
-2.05869, -2.31035e-05
-2.0487, -2.8253599999999997e-05
-2.03871, -3.2959899999999996e-05
-2.02871, -3.72537e-05
-2.01872, -4.11288e-05
-2.00872, -4.46413e-05
-1.99873, -4.77601e-05
-1.98874, -5.03039e-05
-1.97874, -5.24414e-05
-1.96875, -5.4128999999999996e-05
-1.95876, -5.52977e-05
-1.94876, -5.60602e-05
-1.93877, -5.6297699999999995e-05
-1.92877, -5.6047699999999995e-05
-1.91878, -5.5260199999999997e-05
-1.90879, -5.39852e-05
-1.89879, -5.21977e-05
-1.8888, -4.9978900000000004e-05
-1.8788, -4.73226e-05
-1.86881, -4.4341299999999995e-05
-1.85882, -4.10913e-05
-1.84882, -3.76662e-05
-1.83883, -3.41537e-05
-1.82883, -3.06473e-05
-1.81884, -2.7203499999999998e-05
-1.80885, -2.38785e-05
-1.79885, -2.07222e-05
-1.78886, -1.77659e-05
-1.77886, -1.5028399999999998e-05
-1.76887, -1.2553299999999999e-05
-1.75888, -1.03408e-05
-1.74888, -8.4095e-06
-1.73889, -6.778229999999999e-06
-1.7289, -5.42196e-06
-1.7189, -4.31569e-06
-1.70891, -3.44694e-06
-1.69891, -2.7219299999999997e-06
-1.68892, -2.17817e-06
-1.67893, -1.6969e-06
-1.66893, -1.3403299999999999e-06
-1.65894, -1.04283e-06
-1.64894, -8.02824e-07
-1.63895, -6.06571e-07
-1.62896, -4.4906899999999996e-07
-1.61896, -3.25942e-07
-1.60897, -2.2719099999999999e-07
-1.59897, -1.46565e-07
-1.58898, -8.219e-08
-1.57899, -3.20318e-08
-1.56899, 1.4781499999999999e-08
-1.559, 5.19695e-08
-1.549, 8.684519999999999e-08
-1.53901, 1.17158e-07
-1.52902, 1.47096e-07
-1.51902, 1.7634699999999998e-07
-1.50903, 2.0753399999999998e-07
-1.49904, 2.4291e-07
-1.48904, 2.82348e-07
-1.47905, 3.26349e-07
-1.46905, 3.76349e-07
-1.45906, 4.316e-07
-1.44907, 4.90851e-07
-1.43907, 5.53415e-07
-1.42908, 6.21353e-07
-1.41908, 6.95917e-07
-1.40909, 7.771059999999999e-07
-1.3991, 8.67357e-07
-1.3891, 9.624209999999998e-07
-1.37911, 1.06155e-06
-1.36911, 1.1615500000000001e-06
-1.35912, 1.25155e-06
-1.34913, 1.32318e-06
-1.33913, 1.36786e-06
-1.32914, 1.3849299999999998e-06
-1.31915, 1.37536e-06
-1.30915, 1.3482400000000001e-06
-1.29916, 1.30899e-06
-1.28916, 1.26424e-06
-1.27917, 1.21874e-06
-1.26918, 1.1761699999999999e-06
-1.25918, 1.1349199999999998e-06
-1.24919, 1.09774e-06
-1.23919, 1.06517e-06
-1.2292, 1.03442e-06
-1.21921, 1.00867e-06
-1.20921, 9.871089999999999e-07
-1.19922, 9.66484e-07
-1.18922, 9.490459999999999e-07
-1.17923, 9.347959999999999e-07
-1.16924, 9.22983e-07
-1.15924, 9.13295e-07
-1.14925, 9.04795e-07
-1.13926, 8.971069999999999e-07
-1.12926, 8.902949999999999e-07
-1.11927, 8.847319999999999e-07
-1.10927, 8.79232e-07
-1.09928, 8.747319999999999e-07
-1.08929, 8.711069999999999e-07
-1.07929, 8.69795e-07
-1.0693, 8.70982e-07
-1.0593, 8.72357e-07
-1.04931, 8.775449999999999e-07
-1.03932, 8.831069999999999e-07
-1.02932, 8.91607e-07
-1.01933, 8.97982e-07
-1.00933, 9.05608e-07
-0.99934, 9.136079999999999e-07
-0.989347, 9.19483e-07
-0.979353, 9.27295e-07
-0.969359, 9.32108e-07
-0.959365, 9.40233e-07
-0.949371, 9.456709999999999e-07
-0.939377, 9.53608e-07
-0.929383, 9.617329999999999e-07
-0.919389, 9.701089999999999e-07
-0.909395, 9.794839999999999e-07
-0.899401, 9.90171e-07
-0.889407, 1.0006699999999998e-06
-0.879413, 1.01173e-06
-0.86942, 1.02155e-06
-0.859426, 1.0326699999999999e-06
-0.849432, 1.04155e-06
-0.839438, 1.05142e-06
-0.829444, 1.0588e-06
-0.81945, 1.06711e-06
-0.809456, 1.07511e-06
-0.799462, 1.08361e-06
-0.789468, 1.0923599999999999e-06
-0.779474, 1.10199e-06
-0.769481, 1.11267e-06
-0.759487, 1.1239899999999999e-06
-0.749493, 1.13405e-06
-0.739499, 1.1446099999999999e-06
-0.729505, 1.15474e-06
-0.719511, 1.1646099999999999e-06
-0.709517, 1.1746099999999998e-06
-0.699523, 1.18049e-06
-0.689529, 1.18649e-06
-0.679535, 1.19049e-06
-0.669541, 1.19286e-06
-0.659548, 1.19636e-06
-0.649554, 1.1986699999999999e-06
-0.63956, 1.20411e-06
-0.629566, 1.20892e-06
-0.619572, 1.21555e-06
-0.609578, 1.22574e-06
-0.599584, 1.23555e-06
-0.58959, 1.24774e-06
-0.579596, 1.2607999999999999e-06
-0.569602, 1.27455e-06
-0.559609, 1.2878e-06
-0.549615, 1.2983e-06
-0.539621, 1.30943e-06
-0.529627, 1.31768e-06
-0.519633, 1.3269899999999999e-06
-0.509639, 1.33386e-06
-0.499645, 1.34086e-06
-0.489651, 1.34605e-06
-0.479657, 1.3508599999999998e-06
-0.469663, 1.3563e-06
-0.45967, 1.3604899999999999e-06
-0.449676, 1.3652999999999999e-06
-0.439682, 1.3702399999999999e-06
-0.429688, 1.3757399999999999e-06
-0.419694, 1.38149e-06
-0.4097, 1.38643e-06
-0.399706, 1.39155e-06
-0.389712, 1.39693e-06
-0.379718, 1.40237e-06
-0.369724, 1.4083699999999997e-06
-0.359731, 1.4146799999999999e-06
-0.349737, 1.4213699999999999e-06
-0.339743, 1.4298699999999999e-06
-0.329749, 1.4389899999999998e-06
-0.319755, 1.4485499999999999e-06
-0.309761, 1.45855e-06
-0.299767, 1.46818e-06
-0.289773, 1.4763e-06
-0.279779, 1.4836199999999998e-06
-0.269785, 1.4906799999999998e-06
-0.259792, 1.49662e-06
-0.249798, 1.5013e-06
-0.239804, 1.50743e-06
-0.22981, 1.5094899999999998e-06
-0.219816, 1.5104900000000001e-06
-0.209822, 1.5096199999999998e-06
-0.199828, 1.5058e-06
-0.189834, 1.5011799999999998e-06
-0.17984, 1.4953000000000001e-06
-0.169846, 1.4887399999999999e-06
-0.159853, 1.48168e-06
-0.149859, 1.47643e-06
-0.139865, 1.47137e-06
-0.129871, 1.4678e-06
-0.119877, 1.46705e-06
-0.109883, 1.4664299999999998e-06
-0.0998891, 1.46793e-06
-0.0898951, 1.4707399999999998e-06
-0.0799013, 1.47605e-06
-0.0699075, 1.4824299999999998e-06
-0.0599135, 1.4903e-06
-0.0499196, 1.4973e-06
-0.0399256, 1.5024299999999998e-06
-0.0299316, 1.50418e-06
-0.019938, 1.50062e-06
-0.00994404, 1.49287e-06
4.99413E-05, 1.4836199999999998e-06
0.0100439, 1.4723699999999999e-06
0.0200379, 1.4626799999999999e-06
0.0300315, 1.45143e-06
0.0400255, 1.44237e-06
0.0500195, 1.43418e-06
0.0600134, 1.42812e-06
0.0700074, 1.42299e-06
0.080001, 1.4188e-06
0.089995, 1.41505e-06
0.099989, 1.41568e-06
0.109983, 1.41362e-06
0.119977, 1.41505e-06
0.129971, 1.4176200000000001e-06
0.139964, 1.4238699999999998e-06
0.149958, 1.42899e-06
0.159952, 1.4375500000000001e-06
0.169946, 1.44818e-06
0.17994, 1.4618e-06
0.189934, 1.4777399999999999e-06
0.199928, 1.49849e-06
0.209922, 1.5213699999999998e-06
0.219916, 1.5493e-06
0.22991, 1.5804899999999999e-06
0.239904, 1.6165899999999998e-06
0.249897, 1.65596e-06
0.259891, 1.7003399999999999e-06
0.269885, 1.7503399999999998e-06
0.279879, 1.80471e-06
0.289873, 1.86534e-06
0.299867, 1.93222e-06
0.309861, 2.00534e-06
0.319855, 2.09097e-06
0.329849, 2.1847199999999997e-06
0.339843, 2.29535e-06
0.349837, 2.4191e-06
0.35983, 2.57098e-06
0.369824, 2.75535e-06
0.379818, 2.98786e-06
0.389812, 3.2859899999999997e-06
0.399806, 3.6797399999999995e-06
0.4098, 4.20538e-06
0.419794, 4.92101e-06
0.429788, 5.889779999999999e-06
0.439782, 7.22292e-06
0.449776, 9.04983e-06
0.45977, 1.15455e-05
0.469764, 1.48899e-05
0.479757, 1.9242499999999997e-05
0.489751, 2.47348e-05
0.499745, 3.1509899999999995e-05
0.509739, 3.95225e-05
0.519733, 4.87164e-05
0.529727, 5.896029999999999e-05
0.539721, 7.00979e-05
0.549715, 8.183559999999999e-05
0.559709, 9.39671e-05
0.569703, 0.00010622299999999999
0.579696, 0.00011828
0.58969, 0.000129693
0.599684, 0.00014013
0.609678, 0.00014894300000000001
0.619672, 0.000155787
0.629666, 0.000160062
0.63966, 0.00016140899999999997
0.649654, 0.000159471
0.659648, 0.000154721
0.669642, 0.00014790799999999998
0.679635, 0.000140471
0.689629, 0.000133283
0.699623, 0.000126783
0.709617, 0.00012096999999999999
0.719611, 0.000115971
0.729605, 0.000111658
0.739599, 0.000107908
0.749593, 0.000104408
0.759587, 0.000101345
0.769581, 9.85951e-05
0.779574, 9.622029999999999e-05
0.789568, 9.403279999999999e-05
0.799562, 9.190770000000001e-05
0.809556, 9.015749999999999e-05
0.81955, 8.82201e-05
0.829544, 8.64701e-05
0.839538, 8.51576e-05
0.849532, 8.347009999999999e-05
0.859526, 8.228249999999999e-05
0.86952, 8.11574e-05
0.879513, 7.984499999999999e-05
0.889507, 7.840749999999999e-05
0.899501, 7.740739999999999e-05
0.909495, 7.6345e-05
0.919489, 7.53448e-05
0.929483, 7.434489999999999e-05
0.939477, 7.34074e-05
0.949471, 7.253239999999999e-05
0.959465, 7.17824e-05
0.969459, 7.11572e-05
0.979453, 7.02822e-05
0.989446, 6.94697e-05
0.99944, 6.89073e-05
1.00943, 6.82197e-05
1.01943, 6.740739999999999e-05
1.02942, 6.71573e-05
1.03942, 6.628230000000001e-05
1.04941, 6.60322e-05
1.0594, 6.528230000000001e-05
1.0694, 6.496980000000001e-05
1.07939, 6.42822e-05
1.08939, 6.40948e-05
1.09938, 6.33447e-05
1.10937, 6.32198e-05
1.11937, 6.278229999999999e-05
1.12936, 6.228209999999999e-05
1.13935, 6.22196e-05
1.14935, 6.16572e-05
1.15934, 6.12822e-05
1.16934, 6.12197e-05
1.17933, 6.09696e-05
1.18932, 6.04072e-05
1.19932, 6.0219799999999996e-05
1.20931, 6.01571e-05
1.21931, 5.99697e-05
1.2293, 5.94072e-05
1.23929, 5.92821e-05
1.24929, 5.92196e-05
1.25928, 5.9157099999999996e-05
1.26928, 5.87196e-05
1.27927, 5.85322e-05
1.28926, 5.8282099999999995e-05
1.29926, 5.8282099999999995e-05
1.30925, 5.82197e-05
1.31925, 5.81572e-05
1.32924, 5.77197e-05
1.33923, 5.7407099999999995e-05
1.34923, 5.72822e-05
1.35922, 5.7219499999999997e-05
1.36921, 5.69072e-05
1.37921, 5.64072e-05
1.3892, 5.6281999999999994e-05
1.3992, 5.62196e-05
1.40919, 5.58445e-05
1.41918, 5.540699999999999e-05
1.42918, 5.52821e-05
1.43917, 5.52197e-05
1.44917, 5.52197e-05
1.45916, 5.51572e-05
1.46915, 5.4719700000000004e-05
1.47915, 5.4407099999999996e-05
1.48914, 5.42819e-05
1.49914, 5.42819e-05
1.50913, 5.42819e-05
1.51912, 5.421949999999999e-05
1.52912, 5.421949999999999e-05
1.53911, 5.40321e-05
1.5491, 5.39696e-05
1.5591, 5.3781999999999994e-05
1.56909, 5.35946e-05
1.57909, 5.34697e-05
1.58908, 5.3532099999999995e-05
1.59907, 5.33445e-05
1.60907, 5.33445e-05
1.61906, 5.33445e-05
1.62906, 5.33445e-05
1.63905, 5.33445e-05
1.64904, 5.34697e-05
1.65904, 5.34697e-05
1.66903, 5.3532099999999995e-05
1.67903, 5.35946e-05
1.68902, 5.3781999999999994e-05
1.69901, 5.39696e-05
1.70901, 5.4094599999999995e-05
1.719, 5.42819e-05
1.729, 5.42819e-05
1.73899, 5.42819e-05
1.74898, 5.4656999999999995e-05
1.75898, 5.51572e-05
1.76897, 5.52197e-05
1.77896, 5.5719599999999994e-05
1.78896, 5.6281999999999994e-05
1.79895, 5.69696e-05
1.80895, 5.7407099999999995e-05
1.81894, 5.83446e-05
1.82893, 5.9657099999999995e-05
1.83893, 6.12822e-05
1.84892, 6.32198e-05
1.85892, 6.61573e-05
1.86891, 7.02822e-05
1.8789, 7.70323e-05
1.8889, 8.52826e-05
1.89889, 9.497020000000001e-05
1.90889, 0.00010534499999999999
1.91888, 0.000117033
1.92887, 0.00012865799999999997
1.93887, 0.00014115799999999998
1.94886, 0.00015328399999999998
1.95885, 0.00016590899999999997
1.96885, 0.000178284
1.97884, 0.000190972
1.98884, 0.000203347
1.99883, 0.00021565999999999998
2.00882, 0.000227847
1.99883, 0.00020840899999999998
1.98884, 0.000189472
1.97884, 0.000171471
1.96885, 0.000154346
1.95885, 0.000138221
1.94886, 0.000123221
1.93887, 0.00010934499999999999
1.92887, 9.63452e-05
1.91888, 8.4595e-05
1.90889, 7.42199e-05
1.89889, 6.46572e-05
1.8889, 5.678199999999999e-05
1.8789, 5.0282e-05
1.86891, 4.61569e-05
1.85892, 4.421949999999999e-05
1.84892, 4.503199999999999e-05
1.83893, 4.60944e-05
1.82893, 4.63788e-05
1.81894, 4.66413e-05
1.80895, 4.6835099999999995e-05
1.79895, 4.69788e-05
1.78896, 4.7091299999999994e-05
1.77896, 4.7185099999999997e-05
1.76897, 4.72789e-05
1.75898, 4.73476e-05
1.74898, 4.74226e-05
1.73899, 4.75039e-05
1.729, 4.75414e-05
1.719, 4.7616399999999994e-05
1.70901, 4.7647599999999994e-05
1.69901, 4.76976e-05
1.68902, 4.7722599999999996e-05
1.67903, 4.77351e-05
1.66903, 4.77726e-05
1.65904, 4.78101e-05
1.64904, 4.78163e-05
1.63905, 4.78226e-05
1.62906, 4.78476e-05
1.61906, 4.7891399999999993e-05
1.60907, 4.79164e-05
1.59907, 4.7928899999999994e-05
1.58908, 4.79414e-05
1.57909, 4.79789e-05
1.56909, 4.8016399999999997e-05
1.5591, 4.8022599999999997e-05
1.5491, 4.80539e-05
1.53911, 4.80788e-05
1.52912, 4.81164e-05
1.51912, 4.81226e-05
1.50913, 4.81289e-05
1.49914, 4.81664e-05
1.48914, 4.81914e-05
1.47915, 4.82038e-05
1.46915, 4.8222599999999995e-05
1.45916, 4.8222599999999995e-05
1.44917, 4.82289e-05
1.43917, 4.82289e-05
1.42918, 4.82601e-05
1.41918, 4.8241399999999995e-05
1.40919, 4.8285099999999996e-05
1.3992, 4.82976e-05
1.3892, 4.8285099999999996e-05
1.37921, 4.83101e-05
1.36921, 4.83164e-05
1.35922, 4.83164e-05
1.34923, 4.83164e-05
1.33923, 4.83164e-05
1.32924, 4.83164e-05
1.31925, 4.83164e-05
1.30925, 4.83226e-05
1.29926, 4.83226e-05
1.28926, 4.83164e-05
1.27927, 4.83164e-05
1.26928, 4.83164e-05
1.25928, 4.83164e-05
1.24929, 4.83164e-05
1.23929, 4.83164e-05
1.2293, 4.83101e-05
1.21931, 4.83039e-05
1.20931, 4.83101e-05
1.19932, 4.83101e-05
1.18932, 4.83039e-05
1.17933, 4.82976e-05
1.16934, 4.83039e-05
1.15934, 4.82929e-05
1.14935, 4.8285099999999996e-05
1.13935, 4.8285099999999996e-05
1.12936, 4.828349999999999e-05
1.11937, 4.8285099999999996e-05
1.10937, 4.8278899999999996e-05
1.09938, 4.82539e-05
1.08939, 4.8272599999999996e-05
1.07939, 4.8247599999999995e-05
1.0694, 4.82601e-05
1.0594, 4.82539e-05
1.04941, 4.82601e-05
1.03942, 4.8272599999999996e-05
1.02942, 4.8266399999999996e-05
1.01943, 4.8271e-05
1.00943, 4.8272599999999996e-05
0.99944, 4.8272599999999996e-05
0.989446, 4.8278899999999996e-05
0.979453, 4.8285099999999996e-05
0.969459, 4.82914e-05
0.959465, 4.8285099999999996e-05
0.949471, 4.82976e-05
0.939477, 4.83039e-05
0.929483, 4.83101e-05
0.919489, 4.83164e-05
0.909495, 4.83101e-05
0.899501, 4.83164e-05
0.889507, 4.83289e-05
0.879513, 4.83414e-05
0.86952, 4.83351e-05
0.859526, 4.83539e-05
0.849532, 4.83601e-05
0.839538, 4.839139999999999e-05
0.829544, 4.83789e-05
0.81955, 4.84039e-05
0.809556, 4.839759999999999e-05
0.799562, 4.84101e-05
0.789568, 4.839759999999999e-05
0.779574, 4.839139999999999e-05
0.769581, 4.83601e-05
0.759587, 4.83414e-05
0.749593, 4.83039e-05
0.739599, 4.8222599999999995e-05
0.729605, 4.81039e-05
0.719611, 4.7928899999999994e-05
0.709617, 4.7660099999999995e-05
0.699623, 4.72789e-05
0.689629, 4.671009999999999e-05
0.679635, 4.58913e-05
0.669642, 4.46913e-05
0.659648, 4.3003799999999996e-05
0.649654, 4.05725e-05
0.63966, 3.72662e-05
0.629666, 3.283489999999999e-05
0.619672, 2.72098e-05
0.609678, 2.0234699999999998e-05
0.599684, 1.1990799999999999e-05
0.58969, 2.54691e-06
0.579696, -7.85949e-06
0.569703, -1.9115899999999998e-05
0.559709, -3.08849e-05
0.549715, -4.30163e-05
0.539721, -5.52227e-05
0.529727, -6.71729e-05
0.519733, -7.83731e-05
0.509739, -8.846699999999999e-05
0.499745, -9.69796e-05
0.489751, -0.00010346699999999999
0.479757, -0.00010734199999999999
0.469764, -0.000108217
0.45977, -0.000105842
0.449776, -0.00010064799999999999
0.439782, -9.36983e-05
0.429788, -8.623569999999998e-05
0.419794, -7.91606e-05
0.4098, -7.27792e-05
0.399806, -6.71854e-05
0.389812, -6.22853e-05
0.379818, -5.79853e-05
0.369824, -5.4204e-05
0.35983, -5.08664e-05
0.349837, -4.78726e-05
0.339843, -4.51788e-05
0.329849, -4.2741300000000004e-05
0.319855, -4.0535e-05
0.309861, -3.8509999999999996e-05
0.299867, -3.66599e-05
0.289873, -3.4941200000000004e-05
0.279879, -3.33661e-05
0.269885, -3.19036e-05
0.259891, -3.05286e-05
0.249897, -2.9247299999999997e-05
0.239904, -2.8047299999999998e-05
0.22991, -2.6928499999999998e-05
0.219916, -2.5866e-05
0.209922, -2.4866e-05
0.199928, -2.3916e-05
0.189934, -2.30222e-05
0.17994, -2.2184699999999998e-05
0.169946, -2.13785e-05
0.159952, -2.0622199999999997e-05
0.149958, -1.98972e-05
0.139964, -1.92159e-05
0.129971, -1.8553399999999998e-05
0.119977, -1.79222e-05
0.109983, -1.7328399999999998e-05
0.099989, -1.6753399999999998e-05
0.089995, -1.6209599999999998e-05
0.080001, -1.56784e-05
0.0700074, -1.5178399999999999e-05
0.0600134, -1.4709599999999999e-05
0.0500195, -1.42346e-05
0.0400255, -1.37908e-05
0.0300315, -1.33658e-05
0.0200379, -1.2959599999999999e-05
0.0100439, -1.2559599999999999e-05
##END=$$ End of the data block
