##TITLE=Spectrum
##JCAMP-DX=5.00 $$ chemotion-converter-app (1.4.0)
##DATA TYPE=CYCLIC VOLTAMMETRY
##DATA CLASS=XYPOINTS
##ORIGIN=
##OWNER=
##CALCULATION_APPLIED_Y=True
##XUNITS=Voltage in V
##YUNITS=Current in A
##CYCLES=1
##TIME=14:12:35
##DATE=2019-10-28
##SCAN_RATE=2.000E-001
##SOFTWARE=PSTrace
##SOFTWARE_VERSION=5.4.1528.18404
##STEP_SIZE=1.000E-002
##VOLTAGE_START=0.000E+000
##VOLTAGE_LIMIT_ONE=-2.500E+000
##VOLTAGE_LIMIT_TWO=2.000E+000
##VOLTAGE_LIMIT_END=5.000E-001
##COMMENTS=p-Cl-Ph-CO2Me_MeCN.pssession
##FIRSTX=4.99413E-05
##LASTX=0.0100439
##MINX=-2.50842
##MAXX=2.00882
##MINY=-3.46849e-06
##MAXY=8.35107e-06
##NPOINTS=904
##FIRSTY=-1.42221e-06
##XUNITS=Voltage in V
##YUNITS=Current in A
##XYPOINTS=(XY..XY)
4.99413E-05, -1.42221e-06
-0.00994404, -9.78453e-07
-0.019938, -8.097e-07
-0.0299316, -7.22823e-07
-0.0399256, -6.70323e-07
-0.0499196, -6.378219999999999e-07
-0.0599135, -6.140719999999999e-07
-0.0699075, -5.97197e-07
-0.0799013, -5.871960000000001e-07
-0.0898951, -5.76571e-07
-0.0998891, -5.69072e-07
-0.109883, -5.66571e-07
-0.119877, -5.62822e-07
-0.129871, -5.62196e-07
-0.139865, -5.603219999999999e-07
-0.149859, -5.603219999999999e-07
-0.159853, -5.61259e-07
-0.169846, -5.62196e-07
-0.17984, -5.62196e-07
-0.189834, -5.65321e-07
-0.199828, -5.67197e-07
-0.209822, -5.69072e-07
-0.219816, -5.703209999999999e-07
-0.22981, -5.74071e-07
-0.239804, -5.76571e-07
-0.249798, -5.80322e-07
-0.259792, -5.84697e-07
-0.269785, -5.85321e-07
-0.279779, -5.915709999999999e-07
-0.289773, -5.94072e-07
-0.299767, -5.96572e-07
-0.309761, -6.01572e-07
-0.319755, -6.05947e-07
-0.329749, -6.09697e-07
-0.339743, -6.14697e-07
-0.349737, -6.184469999999999e-07
-0.359731, -6.23447e-07
-0.369724, -6.278229999999999e-07
-0.379718, -6.31572e-07
-0.389712, -6.353220000000001e-07
-0.399706, -6.409479999999999e-07
-0.4097, -6.459470000000001e-07
-0.419694, -6.50947e-07
-0.429688, -6.54697e-07
-0.439682, -6.60323e-07
-0.449676, -6.65948e-07
-0.45967, -6.70948e-07
-0.469663, -6.765739999999999e-07
-0.479657, -6.81573e-07
-0.489651, -6.878229999999999e-07
-0.499645, -6.93449e-07
-0.509639, -6.996989999999999e-07
-0.519633, -7.071979999999999e-07
-0.529627, -7.12198e-07
-0.539621, -7.209489999999999e-07
-0.549615, -7.27824e-07
-0.559609, -7.365739999999999e-07
-0.569602, -7.459489999999999e-07
-0.579596, -7.553239999999999e-07
-0.58959, -7.659489999999999e-07
-0.599584, -7.771989999999999e-07
-0.609578, -7.896999999999999e-07
-0.619572, -8.00949e-07
-0.629566, -8.11576e-07
-0.63956, -8.22201e-07
-0.649554, -8.359499999999999e-07
-0.659548, -8.465749999999999e-07
-0.669541, -8.590759999999999e-07
-0.679535, -8.6845e-07
-0.689529, -8.78451e-07
-0.699523, -8.89702e-07
-0.709517, -8.97201e-07
-0.719511, -9.040759999999999e-07
-0.729505, -9.09077e-07
-0.739499, -9.13452e-07
-0.749493, -9.159519999999999e-07
-0.759487, -9.19702e-07
-0.769481, -9.20951e-07
-0.779474, -9.222019999999999e-07
-0.789468, -9.24702e-07
-0.799462, -9.25952e-07
-0.809456, -9.24702e-07
-0.81945, -9.25952e-07
-0.829444, -9.253259999999999e-07
-0.839438, -9.23452e-07
-0.849432, -9.228269999999999e-07
-0.859426, -9.222019999999999e-07
-0.86942, -9.215769999999999e-07
-0.879413, -9.215769999999999e-07
-0.889407, -9.19702e-07
-0.899401, -9.19702e-07
-0.909395, -9.18452e-07
-0.919389, -9.18452e-07
-0.929383, -9.19076e-07
-0.939377, -9.18452e-07
-0.949371, -9.19076e-07
-0.959365, -9.192329999999999e-07
-0.969359, -9.19702e-07
-0.979353, -9.19702e-07
-0.989347, -9.215769999999999e-07
-0.99934, -9.20951e-07
-1.00933, -9.23452e-07
-1.01933, -9.24077e-07
-1.02932, -9.253259999999999e-07
-1.03932, -9.25952e-07
-1.04931, -9.265769999999999e-07
-1.0593, -9.29077e-07
-1.0693, -9.30327e-07
-1.07929, -9.322019999999999e-07
-1.08929, -9.334519999999999e-07
-1.09928, -9.340779999999999e-07
-1.10927, -9.359509999999999e-07
-1.11927, -9.378269999999999e-07
-1.12926, -9.40952e-07
-1.13926, -9.428269999999999e-07
-1.14925, -9.44077e-07
-1.15924, -9.48452e-07
-1.16924, -9.48452e-07
-1.17923, -9.50953e-07
-1.18922, -9.534529999999999e-07
-1.19922, -9.54702e-07
-1.20921, -9.590769999999998e-07
-1.21921, -9.60327e-07
-1.2292, -9.63452e-07
-1.23919, -9.65327e-07
-1.24919, -9.67828e-07
-1.25918, -9.697019999999999e-07
-1.26918, -9.72203e-07
-1.27917, -9.753270000000001e-07
-1.28916, -9.79078e-07
-1.29916, -9.815779999999999e-07
-1.30915, -9.84077e-07
-1.31915, -9.85953e-07
-1.32914, -9.90328e-07
-1.33913, -9.922029999999999e-07
-1.34913, -9.94703e-07
-1.35912, -9.97828e-07
-1.36911, -1.00158e-06
-1.37911, -1.0040800000000001e-06
-1.3891, -1.0078299999999999e-06
-1.3991, -1.0103299999999999e-06
-1.40909, -1.01408e-06
-1.41908, -1.01658e-06
-1.42908, -1.02095e-06
-1.43907, -1.02283e-06
-1.44907, -1.02783e-06
-1.45906, -1.0303299999999999e-06
-1.46905, -1.03533e-06
-1.47905, -1.03845e-06
-1.48904, -1.04283e-06
-1.49904, -1.04783e-06
-1.50903, -1.0515799999999999e-06
-1.51902, -1.0559499999999998e-06
-1.52902, -1.0597e-06
-1.53901, -1.06595e-06
-1.549, -1.0697000000000001e-06
-1.559, -1.0740799999999999e-06
-1.56899, -1.0797e-06
-1.57899, -1.0847e-06
-1.58898, -1.08845e-06
-1.59897, -1.0934499999999999e-06
-1.60897, -1.09908e-06
-1.61896, -1.10345e-06
-1.62896, -1.1109500000000001e-06
-1.63895, -1.1171999999999999e-06
-1.64894, -1.12345e-06
-1.65894, -1.12908e-06
-1.66893, -1.13595e-06
-1.67893, -1.14158e-06
-1.68892, -1.14908e-06
-1.69891, -1.15783e-06
-1.70891, -1.16596e-06
-1.7189, -1.1747099999999998e-06
-1.7289, -1.18221e-06
-1.73889, -1.19158e-06
-1.74888, -1.20221e-06
-1.75888, -1.2109599999999999e-06
-1.76887, -1.22221e-06
-1.77886, -1.2322099999999999e-06
-1.78886, -1.24283e-06
-1.79885, -1.25408e-06
-1.80885, -1.26408e-06
-1.81884, -1.2759599999999999e-06
-1.82883, -1.28658e-06
-1.83883, -1.29783e-06
-1.84882, -1.3097099999999998e-06
-1.85882, -1.3203299999999999e-06
-1.86881, -1.33283e-06
-1.8788, -1.34596e-06
-1.8888, -1.35908e-06
-1.89879, -1.3709599999999998e-06
-1.90879, -1.3847100000000001e-06
-1.91878, -1.39846e-06
-1.92877, -1.41408e-06
-1.93877, -1.4278299999999999e-06
-1.94876, -1.4428399999999998e-06
-1.95876, -1.4565799999999998e-06
-1.96875, -1.47221e-06
-1.97874, -1.48908e-06
-1.98874, -1.50346e-06
-1.99873, -1.52221e-06
-2.00872, -1.53721e-06
-2.01872, -1.5553399999999998e-06
-2.02871, -1.57284e-06
-2.03871, -1.5922099999999998e-06
-2.0487, -1.6103400000000001e-06
-2.05869, -1.6309599999999999e-06
-2.06869, -1.65096e-06
-2.07868, -1.67346e-06
-2.08868, -1.69471e-06
-2.09867, -1.71909e-06
-2.10866, -1.74284e-06
-2.11866, -1.76847e-06
-2.12865, -1.7953399999999998e-06
-2.13865, -1.82409e-06
-2.14864, -1.85222e-06
-2.15863, -1.8834699999999999e-06
-2.16863, -1.91597e-06
-2.17862, -1.94784e-06
-2.18861, -1.98222e-06
-2.19861, -2.0203399999999998e-06
-2.2086, -2.05847e-06
-2.2186, -2.0953499999999998e-06
-2.22859, -2.13597e-06
-2.23858, -2.17535e-06
-2.24858, -2.21535e-06
-2.25857, -2.25472e-06
-2.26857, -2.29535e-06
-2.27856, -2.33597e-06
-2.28855, -2.3759700000000002e-06
-2.29855, -2.4159700000000003e-06
-2.30854, -2.4566e-06
-2.31854, -2.4984799999999998e-06
-2.32853, -2.53973e-06
-2.33852, -2.5816e-06
-2.34852, -2.62348e-06
-2.35851, -2.6684800000000002e-06
-2.36851, -2.71035e-06
-2.3785, -2.75661e-06
-2.38849, -2.80035e-06
-2.39849, -2.84848e-06
-2.40848, -2.89536e-06
-2.41847, -2.94473e-06
-2.42847, -2.99411e-06
-2.43846, -3.04536e-06
-2.44846, -3.09973e-06
-2.45845, -3.1553599999999996e-06
-2.46844, -3.2122399999999998e-06
-2.47844, -3.27349e-06
-2.48843, -3.33536e-06
-2.49843, -3.40099e-06
-2.50842, -3.46849e-06
-2.49843, -2.94661e-06
-2.48843, -2.58848e-06
-2.47844, -2.3191e-06
-2.46844, -2.1047199999999996e-06
-2.45845, -1.93222e-06
-2.44846, -1.7847099999999999e-06
-2.43846, -1.6615899999999998e-06
-2.42847, -1.55284e-06
-2.41847, -1.4590799999999998e-06
-2.40848, -1.3734599999999998e-06
-2.39849, -1.2984599999999999e-06
-2.38849, -1.2284600000000001e-06
-2.3785, -1.1653299999999999e-06
-2.36851, -1.10783e-06
-2.35851, -1.0546999999999998e-06
-2.34852, -1.0040800000000001e-06
-2.33852, -9.578279999999999e-07
-2.32853, -9.14077e-07
-2.31854, -8.72201e-07
-2.30854, -8.346999999999999e-07
-2.29855, -7.972e-07
-2.28855, -7.6345e-07
-2.27856, -7.30948e-07
-2.26857, -6.99073e-07
-2.25857, -6.72199e-07
-2.24858, -6.44697e-07
-2.23858, -6.178219999999999e-07
-2.22859, -5.93446e-07
-2.2186, -5.703209999999999e-07
-2.2086, -5.48446e-07
-2.19861, -5.29071e-07
-2.18861, -5.121959999999999e-07
-2.17862, -4.95321e-07
-2.16863, -4.79071e-07
-2.15863, -4.6469399999999997e-07
-2.14864, -4.5157e-07
-2.13865, -4.38445e-07
-2.12865, -4.27194e-07
-2.11866, -4.17538e-07
-2.10866, -4.071e-07
-2.09867, -3.961e-07
-2.08868, -3.8691199999999996e-07
-2.07868, -3.7828699999999995e-07
-2.06869, -3.68412e-07
-2.05869, -3.6016199999999997e-07
-2.0487, -3.5153699999999995e-07
-2.03871, -3.43662e-07
-2.02871, -3.35411e-07
-2.01872, -3.2828600000000003e-07
-2.00872, -3.20099e-07
-1.99873, -3.12036e-07
-1.98874, -3.05036e-07
-1.97874, -2.97536e-07
-1.96875, -2.9078599999999997e-07
-1.95876, -2.8378599999999997e-07
-1.94876, -2.7703499999999997e-07
-1.93877, -2.7153500000000003e-07
-1.92877, -2.6440999999999997e-07
-1.91878, -2.57535e-07
-1.90879, -2.5141e-07
-1.89879, -2.46348e-07
-1.8888, -2.3947199999999996e-07
-1.8788, -2.3409699999999998e-07
-1.86881, -2.2709699999999999e-07
-1.85882, -2.2015999999999998e-07
-1.84882, -2.15097e-07
-1.83883, -2.09659e-07
-1.82883, -2.04597e-07
-1.81884, -1.9984699999999998e-07
-1.80885, -1.93472e-07
-1.79885, -1.89097e-07
-1.78886, -1.8490899999999998e-07
-1.77886, -1.78034e-07
-1.76887, -1.72471e-07
-1.75888, -1.67596e-07
-1.74888, -1.62784e-07
-1.73889, -1.58784e-07
-1.7289, -1.5372099999999998e-07
-1.7189, -1.48846e-07
-1.70891, -1.44658e-07
-1.69891, -1.37533e-07
-1.68892, -1.33221e-07
-1.67893, -1.29158e-07
-1.66893, -1.2478299999999999e-07
-1.65894, -1.1959599999999998e-07
-1.64894, -1.1597e-07
-1.63895, -1.10345e-07
-1.62896, -1.0471999999999999e-07
-1.61896, -1.0090799999999999e-07
-1.60897, -9.659529999999999e-08
-1.59897, -9.153269999999999e-08
-1.58898, -8.622009999999999e-08
-1.57899, -8.147e-08
-1.56899, -7.72824e-08
-1.559, -7.278239999999999e-08
-1.549, -6.80323e-08
-1.53901, -6.40322e-08
-1.52902, -5.971969999999999e-08
-1.51902, -5.4219599999999997e-08
-1.50903, -5.09696e-08
-1.49904, -4.6719599999999996e-08
-1.48904, -4.14693e-08
-1.47905, -3.59693e-08
-1.46905, -3.16567e-08
-1.45906, -2.6844300000000002e-08
-1.44907, -2.42817e-08
-1.43907, -1.8531599999999998e-08
-1.42908, -1.42815e-08
-1.41908, -9.81578e-09
-1.40909, -6.30947e-09
-1.3991, -1.6531499999999998e-09
-1.3891, 1.1968899999999998e-09
-1.37911, 6.171969999999999e-09
-1.36911, 1.14783e-08
-1.35912, 1.39408e-08
-1.34913, 1.83222e-08
-1.33913, 2.17847e-08
-1.32914, 2.4965999999999997e-08
-1.31915, 2.99098e-08
-1.30915, 3.35786e-08
-1.29916, 3.7266199999999995e-08
-1.28916, 4.00662e-08
-1.27917, 4.3659999999999995e-08
-1.26918, 4.6628799999999996e-08
-1.25918, 4.9803899999999995e-08
-1.24919, 5.4254e-08
-1.23919, 5.70665e-08
-1.2292, 5.9497800000000004e-08
-1.21921, 6.311659999999999e-08
-1.20921, 6.731040000000001e-08
-1.19922, 6.92167e-08
-1.18922, 7.1873e-08
-1.17923, 7.526049999999999e-08
-1.16924, 7.70293e-08
-1.15924, 8.034189999999999e-08
-1.14925, 8.38169e-08
-1.13926, 8.49357e-08
-1.12926, 8.8717e-08
-1.11927, 9.078579999999999e-08
-1.10927, 9.336079999999999e-08
-1.09928, 9.56483e-08
-1.08929, 9.868589999999998e-08
-1.07929, 1.00942e-07
-1.0693, 1.03911e-07
-1.0593, 1.0616699999999999e-07
-1.04931, 1.07836e-07
-1.03932, 1.1134199999999999e-07
-1.02932, 1.12611e-07
-1.01933, 1.1578599999999999e-07
-1.00933, 1.1902999999999999e-07
-0.99934, 1.2069199999999998e-07
-0.989347, 1.23311e-07
-0.979353, 1.25724e-07
-0.969359, 1.2832399999999998e-07
-0.959365, 1.3143599999999999e-07
-0.949371, 1.3449299999999999e-07
-0.939377, 1.36924e-07
-0.929383, 1.39993e-07
-0.919389, 1.43949e-07
-0.909395, 1.47993e-07
-0.899401, 1.5224899999999998e-07
-0.889407, 1.56999e-07
-0.879413, 1.62631e-07
-0.86942, 1.7067399999999998e-07
-0.859426, 1.7795e-07
-0.849432, 1.87597e-07
-0.839438, 1.9809699999999998e-07
-0.829444, 2.10972e-07
-0.81945, 2.2497199999999998e-07
-0.809456, 2.39347e-07
-0.799462, 2.5259799999999997e-07
-0.789468, 2.65598e-07
-0.779474, 2.7616e-07
-0.769481, 2.86411e-07
-0.759487, 2.94411e-07
-0.749493, 3.03223e-07
-0.739499, 3.07161e-07
-0.729505, 3.12036e-07
-0.719511, 3.17161e-07
-0.709517, 3.20349e-07
-0.699523, 3.24224e-07
-0.689529, 3.2684899999999996e-07
-0.679535, 3.3047399999999997e-07
-0.669541, 3.34411e-07
-0.659548, 3.37599e-07
-0.649554, 3.39849e-07
-0.63956, 3.42036e-07
-0.629566, 3.46849e-07
-0.619572, 3.50474e-07
-0.609578, 3.53474e-07
-0.599584, 3.5591199999999996e-07
-0.58959, 3.59974e-07
-0.579596, 3.63537e-07
-0.569602, 3.67474e-07
-0.559609, 3.7059999999999994e-07
-0.549615, 3.7522499999999997e-07
-0.539621, 3.7766199999999996e-07
-0.529627, 3.8285e-07
-0.519633, 3.86037e-07
-0.509639, 3.9059999999999996e-07
-0.499645, 3.9528699999999996e-07
-0.489651, 3.9785e-07
-0.479657, 4.021e-07
-0.469663, 4.05225e-07
-0.45967, 4.10475e-07
-0.449676, 4.1322499999999997e-07
-0.439682, 4.17038e-07
-0.429688, 4.2147499999999995e-07
-0.419694, 4.2466299999999997e-07
-0.4097, 4.2709999999999995e-07
-0.399706, 4.311e-07
-0.389712, 4.3528799999999997e-07
-0.379718, 4.37788e-07
-0.369724, 4.4141299999999996e-07
-0.359731, 4.43788e-07
-0.349737, 4.48101e-07
-0.339743, 4.51288e-07
-0.329749, 4.54288e-07
-0.319755, 4.57538e-07
-0.309761, 4.61413e-07
-0.299767, 4.65663e-07
-0.289773, 4.68601e-07
-0.279779, 4.71164e-07
-0.269785, 4.73976e-07
-0.259792, 4.77288e-07
-0.249798, 4.80476e-07
-0.239804, 4.84726e-07
-0.22981, 4.878509999999999e-07
-0.219816, 4.89851e-07
-0.209822, 4.93976e-07
-0.199828, 4.96914e-07
-0.189834, 5.00226e-07
-0.17984, 5.02789e-07
-0.169846, 5.061639999999999e-07
-0.159853, 5.10726e-07
-0.149859, 5.12789e-07
-0.139865, 5.16977e-07
-0.129871, 5.197889999999999e-07
-0.119877, 5.234769999999999e-07
-0.109883, 5.27977e-07
-0.0998891, 5.297269999999999e-07
-0.0898951, 5.321639999999999e-07
-0.0799013, 5.35852e-07
-0.0699075, 5.385389999999999e-07
-0.0599135, 5.42227e-07
-0.0499196, 5.450399999999999e-07
-0.0399256, 5.4754e-07
-0.0299316, 5.496649999999999e-07
-0.019938, 5.53727e-07
-0.00994404, 5.55352e-07
4.99413E-05, 5.58165e-07
0.0100439, 5.61227e-07
0.0200379, 5.62227e-07
0.0300315, 5.65102e-07
0.0400255, 5.6779e-07
0.0500195, 5.69227e-07
0.0600134, 5.71665e-07
0.0700074, 5.7379e-07
0.080001, 5.749779999999999e-07
0.089995, 5.768529999999999e-07
0.099989, 5.79728e-07
0.109983, 5.80353e-07
0.119977, 5.81915e-07
0.129971, 5.843529999999999e-07
0.139964, 5.85353e-07
0.149958, 5.878529999999999e-07
0.159952, 5.90728e-07
0.169946, 5.901650000000001e-07
0.17994, 5.92915e-07
0.189934, 5.93353e-07
0.199928, 5.95415e-07
0.209922, 5.9829e-07
0.219916, 6.01665e-07
0.22991, 6.034779999999999e-07
0.239904, 6.067909999999999e-07
0.249897, 6.085409999999999e-07
0.259891, 6.13353e-07
0.269885, 6.174159999999999e-07
0.279879, 6.22353e-07
0.289873, 6.29353e-07
0.299867, 6.36166e-07
0.309861, 6.45291e-07
0.319855, 6.55291e-07
0.329849, 6.68479e-07
0.339843, 6.81104e-07
0.349837, 6.97667e-07
0.35983, 7.15917e-07
0.369824, 7.35292e-07
0.379818, 7.57105e-07
0.389812, 7.807309999999999e-07
0.399806, 8.04856e-07
0.4098, 8.312939999999999e-07
0.419794, 8.59169e-07
0.429788, 8.864819999999999e-07
0.439782, 9.1367e-07
0.449776, 9.40796e-07
0.45977, 9.67859e-07
0.469764, 9.896089999999998e-07
0.479757, 1.01286e-06
0.489751, 1.0299799999999998e-06
0.499745, 1.0459799999999999e-06
0.509739, 1.0558599999999999e-06
0.519733, 1.06399e-06
0.529727, 1.06924e-06
0.539721, 1.06936e-06
0.549715, 1.0679199999999999e-06
0.559709, 1.06261e-06
0.569703, 1.05805e-06
0.579696, 1.05223e-06
0.58969, 1.04336e-06
0.599684, 1.03573e-06
0.609678, 1.02936e-06
0.619672, 1.0218e-06
0.629666, 1.01492e-06
0.63966, 1.0071699999999999e-06
0.649654, 1.0004200000000001e-06
0.659648, 9.951719999999999e-07
0.669642, 9.89109e-07
0.679635, 9.82859e-07
0.689629, 9.77421e-07
0.699623, 9.73671e-07
0.709617, 9.68609e-07
0.719611, 9.65296e-07
0.729605, 9.620459999999999e-07
0.739599, 9.58921e-07
0.749593, 9.574829999999999e-07
0.759587, 9.5589e-07
0.769581, 9.534209999999999e-07
0.779574, 9.53733e-07
0.789568, 9.521709999999999e-07
0.799562, 9.517959999999999e-07
0.809556, 9.51733e-07
0.81955, 9.512019999999999e-07
0.829544, 9.504829999999999e-07
0.839538, 9.50796e-07
0.849532, 9.521709999999999e-07
0.859526, 9.52608e-07
0.86952, 9.53671e-07
0.879513, 9.56358e-07
0.889507, 9.60171e-07
0.899501, 9.63109e-07
0.909495, 9.637959999999999e-07
0.919489, 9.67859e-07
0.929483, 9.71171e-07
0.939477, 9.75421e-07
0.949471, 9.790459999999999e-07
0.959465, 9.837339999999999e-07
0.969459, 9.90171e-07
0.979453, 9.96234e-07
0.989446, 1.0011699999999999e-06
0.99944, 1.00955e-06
1.00943, 1.0162299999999999e-06
1.01943, 1.0248e-06
1.02942, 1.0346699999999998e-06
1.03942, 1.0440499999999998e-06
1.04941, 1.0546699999999998e-06
1.0594, 1.0649900000000001e-06
1.0694, 1.0788e-06
1.07939, 1.09192e-06
1.08939, 1.10605e-06
1.09938, 1.12249e-06
1.10937, 1.1361699999999998e-06
1.11937, 1.15374e-06
1.12936, 1.1694199999999999e-06
1.13935, 1.18817e-06
1.14935, 1.2079899999999998e-06
1.15934, 1.22586e-06
1.16934, 1.24455e-06
1.17933, 1.26924e-06
1.18932, 1.29168e-06
1.19932, 1.30749e-06
1.20931, 1.32918e-06
1.21931, 1.35149e-06
1.2293, 1.37386e-06
1.23929, 1.39555e-06
1.24929, 1.4179299999999998e-06
1.25928, 1.4428e-06
1.26928, 1.46168e-06
1.27927, 1.4858e-06
1.28926, 1.51118e-06
1.29926, 1.53543e-06
1.30925, 1.55599e-06
1.31925, 1.57837e-06
1.32924, 1.60721e-06
1.33923, 1.6309599999999999e-06
1.34923, 1.65409e-06
1.35922, 1.6790899999999999e-06
1.36921, 1.7047099999999998e-06
1.37921, 1.72784e-06
1.3892, 1.75596e-06
1.3992, 1.78034e-06
1.40919, 1.80597e-06
1.41918, 1.83222e-06
1.42918, 1.8584699999999999e-06
1.43917, 1.8878399999999998e-06
1.44917, 1.9147199999999998e-06
1.45916, 1.9428399999999997e-06
1.46915, 1.97222e-06
1.47915, 2.0047199999999998e-06
1.48914, 2.03409e-06
1.49914, 2.0678399999999998e-06
1.50913, 2.1016e-06
1.51912, 2.1340899999999998e-06
1.52912, 2.1716e-06
1.53911, 2.20597e-06
1.5491, 2.24535e-06
1.5591, 2.28472e-06
1.56909, 2.3241e-06
1.57909, 2.3691e-06
1.58908, 2.4091e-06
1.59907, 2.4566e-06
1.60907, 2.5041000000000003e-06
1.61906, 2.5566e-06
1.62906, 2.60598e-06
1.63905, 2.6603500000000003e-06
1.64904, 2.7172299999999996e-06
1.65904, 2.77535e-06
1.66903, 2.8378599999999997e-06
1.67903, 2.9016099999999997e-06
1.68902, 2.9678599999999997e-06
1.69901, 3.0409799999999996e-06
1.70901, 3.11661e-06
1.719, 3.19349e-06
1.729, 3.2716099999999996e-06
1.73899, 3.3572399999999996e-06
1.74898, 3.44661e-06
1.75898, 3.5409899999999998e-06
1.76897, 3.6347399999999995e-06
1.77896, 3.73912e-06
1.78896, 3.8416199999999995e-06
1.79895, 3.95725e-06
1.80895, 4.074749999999999e-06
1.81894, 4.19975e-06
1.82893, 4.32913e-06
1.83893, 4.46288e-06
1.84892, 4.60288e-06
1.85892, 4.7503900000000004e-06
1.86891, 4.9091399999999996e-06
1.8789, 5.077889999999999e-06
1.8889, 5.25039e-06
1.89889, 5.442269999999999e-06
1.90889, 5.62915e-06
1.91888, 5.8354e-06
1.92887, 6.05165e-06
1.93887, 6.29603e-06
1.94886, 6.52104e-06
1.95885, 6.7872899999999995e-06
1.96885, 7.072919999999999e-06
1.97884, 7.36542e-06
1.98884, 7.65043e-06
1.99883, 8.000439999999998e-06
2.00882, 8.35107e-06
1.99883, 6.387909999999999e-06
1.98884, 5.092889999999999e-06
1.97884, 4.17163e-06
1.96885, 3.4872399999999997e-06
1.95885, 2.95848e-06
1.94886, 2.5478499999999997e-06
1.93887, 2.20472e-06
1.92887, 1.9378399999999997e-06
1.91888, 1.71471e-06
1.90889, 1.53096e-06
1.89889, 1.37721e-06
1.8889, 1.23971e-06
1.8789, 1.13096e-06
1.86891, 1.0315799999999999e-06
1.85892, 9.422019999999999e-07
1.84892, 8.678249999999999e-07
1.83893, 7.97825e-07
1.82893, 7.403229999999999e-07
1.81894, 6.85322e-07
1.80895, 6.39696e-07
1.79895, 5.90947e-07
1.78896, 5.52197e-07
1.77896, 5.1657e-07
1.76897, 4.8532e-07
1.75898, 4.5532e-07
1.74898, 4.23443e-07
1.73899, 3.95944e-07
1.729, 3.7281799999999997e-07
1.719, 3.4453699999999996e-07
1.70901, 3.24349e-07
1.69901, 3.02348e-07
1.68902, 2.8347299999999996e-07
1.67903, 2.6066e-07
1.66903, 2.4272299999999997e-07
1.65904, 2.27722e-07
1.64904, 2.10847e-07
1.63905, 1.93222e-07
1.62906, 1.79159e-07
1.61906, 1.62784e-07
1.60907, 1.49096e-07
1.59907, 1.31908e-07
1.58908, 1.17721e-07
1.57909, 1.0571999999999998e-07
1.56909, 9.09076e-08
1.5591, 7.81574e-08
1.5491, 6.33447e-08
1.53911, 5.0782e-08
1.52912, 4.08444e-08
1.51912, 2.84066e-08
1.50913, 1.6969e-08
1.49914, 4.906419999999999e-09
1.48914, -5.468849999999999e-09
1.47915, -1.65315e-08
1.46915, -2.9434799999999998e-08
1.45916, -3.8603699999999996e-08
1.44917, -4.8303899999999995e-08
1.43917, -5.96853e-08
1.42918, -7.108549999999999e-08
1.41918, -7.95981e-08
1.40919, -9.04983e-08
1.3992, -9.773589999999999e-08
1.3892, -1.10036e-07
1.37921, -1.19411e-07
1.36921, -1.25449e-07
1.35922, -1.36418e-07
1.34923, -1.46474e-07
1.33923, -1.5533699999999998e-07
1.32924, -1.63549e-07
1.31925, -1.7090599999999998e-07
1.30925, -1.80097e-07
1.29926, -1.8940899999999997e-07
1.28926, -1.96472e-07
1.27927, -2.06409e-07
1.26928, -2.14222e-07
1.25928, -2.2440999999999998e-07
1.24929, -2.3290999999999999e-07
1.23929, -2.40847e-07
1.2293, -2.4841e-07
1.21931, -2.58848e-07
1.20931, -2.66035e-07
1.19932, -2.76723e-07
1.18932, -2.82911e-07
1.17933, -2.90723e-07
1.16934, -3.0097299999999995e-07
1.15934, -3.0803599999999994e-07
1.14935, -3.1891099999999996e-07
1.13935, -3.26724e-07
1.12936, -3.35286e-07
1.11937, -3.4222399999999995e-07
1.10937, -3.52662e-07
1.09938, -3.6028700000000003e-07
1.08939, -3.6778699999999996e-07
1.07939, -3.76912e-07
1.0694, -3.8441199999999994e-07
1.0594, -3.9391199999999996e-07
1.04941, -4.016e-07
1.03942, -4.121e-07
1.02942, -4.2035e-07
1.01943, -4.2753799999999997e-07
1.00943, -4.3822599999999997e-07
0.99944, -4.45101e-07
0.989446, -4.5410099999999994e-07
0.979453, -4.6197599999999995e-07
0.969459, -4.7166299999999995e-07
0.959465, -4.79664e-07
0.949471, -4.865389999999999e-07
0.939477, -4.98101e-07
0.929483, -5.05539e-07
0.919489, -5.13102e-07
0.909495, -5.21227e-07
0.899501, -5.29414e-07
0.889507, -5.381019999999999e-07
0.879513, -5.4279e-07
0.86952, -5.52227e-07
0.859526, -5.626649999999999e-07
0.849532, -5.68415e-07
0.839538, -5.76415e-07
0.829544, -5.82415e-07
0.81955, -5.896029999999999e-07
0.809556, -5.961649999999999e-07
0.799562, -6.025399999999999e-07
0.789568, -6.096029999999999e-07
0.779574, -6.15853e-07
0.769581, -6.207279999999999e-07
0.759587, -6.26603e-07
0.749593, -6.29791e-07
0.739599, -6.31728e-07
0.729605, -6.384159999999999e-07
0.719611, -6.42479e-07
0.709617, -6.432909999999999e-07
0.699623, -6.479789999999999e-07
0.689629, -6.52104e-07
0.679635, -6.53041e-07
0.669642, -6.556039999999999e-07
0.659648, -6.55104e-07
0.649654, -6.583539999999999e-07
0.63966, -6.61104e-07
0.629666, -6.62729e-07
0.619672, -6.636659999999999e-07
0.609678, -6.65229e-07
0.599684, -6.662909999999999e-07
0.58969, -6.69729e-07
0.579696, -6.71417e-07
0.569703, -6.730419999999999e-07
0.559709, -6.74729e-07
0.549715, -6.78042e-07
0.539721, -6.77542e-07
0.529727, -6.807919999999999e-07
0.519733, -6.82229e-07
0.509739, -6.82979e-07
0.499745, -6.82198e-07
0.489751, -6.81729e-07
0.479757, -6.818539999999999e-07
0.469764, -6.80729e-07
0.45977, -6.79292e-07
0.449776, -6.76354e-07
0.439782, -6.737919999999999e-07
0.429788, -6.71041e-07
0.419794, -6.67041e-07
0.4098, -6.63729e-07
0.399806, -6.59729e-07
0.389812, -6.565410000000001e-07
0.379818, -6.522289999999999e-07
0.369824, -6.484159999999999e-07
0.35983, -6.442909999999999e-07
0.349837, -6.39791e-07
0.339843, -6.366659999999999e-07
0.329849, -6.32916e-07
0.319855, -6.27728e-07
0.309861, -6.24978e-07
0.299867, -6.22916e-07
0.289873, -6.17978e-07
0.279879, -6.14666e-07
0.269885, -6.11728e-07
0.259891, -6.09228e-07
0.249897, -6.06353e-07
0.239904, -6.031659999999999e-07
0.22991, -6.025399999999999e-07
0.219916, -5.99478e-07
0.209922, -5.975399999999999e-07
0.199928, -5.96353e-07
0.189934, -5.938529999999999e-07
0.17994, -5.93665e-07
0.169946, -5.91665e-07
0.159952, -5.90353e-07
0.149958, -5.90603e-07
0.139964, -5.8979e-07
0.129971, -5.89728e-07
0.119977, -5.89384e-07
0.109983, -5.890399999999999e-07
0.099989, -5.88978e-07
0.089995, -5.89978e-07
0.080001, -5.89478e-07
0.0700074, -5.901030000000001e-07
0.0600134, -5.9179e-07
0.0500195, -5.92978e-07
0.0400255, -5.925399999999999e-07
0.0300315, -5.94353e-07
0.0200379, -5.9504e-07
0.0100439, -5.956029999999999e-07
##END=$$ End of the data block
