##TITLE=Spectrum
##JCAMP-DX=5.00 $$ chemotion-converter-app (1.1.0)
##DATA TYPE=CYCLIC VOLTAMMETRY
##DATA CLASS=XYPOINTS
##ORIGIN=
##OWNER=
##XUNITS=Voltage in V
##YUNITS=Current in A
##CYCLES=1
##TIME=14:12:35
##DATE=2019-10-28
##SCAN_RATE=2.000E-001
##SOFTWARE=PSTrace
##SOFTWARE_VERSION=5.4.1528.18404
##STEP_SIZE=1.000E-002
##VOLTAGE_START=0.000E+000
##VOLTAGE_LIMIT_ONE=-2.500E+000
##VOLTAGE_LIMIT_TWO=2.000E+000
##VOLTAGE_LIMIT_END=5.000E-001
##COMMENTS=p-Cl-Ph-CO2Me_MeCN.pssession
##FIRSTX=4.99413E-05
##LASTX=0.0100439
##MINX=-2.7083
##MAXX=2.00882
##MINY=-0.000481851
##MAXY=2.9847299999999998e-05
##NPOINTS=944
##FIRSTY=-1.34721e-06
##XUNITS=Voltage in V
##YUNITS=Current in A
##XYPOINTS=(XY..XY)
4.99413E-05, -1.34721e-06
-0.00994404, -9.384519999999999e-07
-0.019938, -8.046999999999999e-07
-0.0299316, -7.42824e-07
-0.0399256, -7.17824e-07
-0.0499196, -7.03448e-07
-0.0599135, -7.06574e-07
-0.0699075, -7.09698e-07
-0.0799013, -7.22823e-07
-0.0898951, -7.32824e-07
-0.0998891, -7.51574e-07
-0.109883, -7.6345e-07
-0.119877, -7.840749999999999e-07
-0.129871, -8.003249999999999e-07
-0.139865, -8.2095e-07
-0.149859, -8.372009999999999e-07
-0.159853, -8.578249999999999e-07
-0.169846, -8.747009999999999e-07
-0.17984, -8.97826e-07
-0.189834, -9.15327e-07
-0.199828, -9.35327e-07
-0.209822, -9.55952e-07
-0.219816, -9.72828e-07
-0.22981, -9.91578e-07
-0.239804, -1.0097e-06
-0.249798, -1.02658e-06
-0.259792, -1.04658e-06
-0.269785, -1.06095e-06
-0.279779, -1.0784499999999998e-06
-0.289773, -1.09283e-06
-0.299767, -1.1122000000000001e-06
-0.309761, -1.1240799999999998e-06
-0.319755, -1.14033e-06
-0.329749, -1.14971e-06
-0.339743, -1.1665799999999998e-06
-0.349737, -1.17908e-06
-0.359731, -1.19158e-06
-0.369724, -1.20221e-06
-0.379718, -1.2159599999999998e-06
-0.389712, -1.22533e-06
-0.399706, -1.2372099999999998e-06
-0.4097, -1.24783e-06
-0.419694, -1.2584599999999998e-06
-0.429688, -1.27096e-06
-0.439682, -1.2797099999999999e-06
-0.449676, -1.28846e-06
-0.45967, -1.3003299999999998e-06
-0.469663, -1.30783e-06
-0.479657, -1.3215799999999998e-06
-0.489651, -1.3297099999999998e-06
-0.499645, -1.34346e-06
-0.509639, -1.35346e-06
-0.519633, -1.3653299999999999e-06
-0.529627, -1.37658e-06
-0.539621, -1.39033e-06
-0.549615, -1.40283e-06
-0.559609, -1.41846e-06
-0.569602, -1.42846e-06
-0.579596, -1.44783e-06
-0.58959, -1.4603399999999999e-06
-0.599584, -1.47784e-06
-0.609578, -1.49096e-06
-0.619572, -1.5084599999999998e-06
-0.629566, -1.52221e-06
-0.63956, -1.5409600000000001e-06
-0.649554, -1.55846e-06
-0.659548, -1.57596e-06
-0.669541, -1.59159e-06
-0.679535, -1.6097099999999999e-06
-0.689529, -1.62409e-06
-0.699523, -1.64096e-06
-0.709517, -1.65034e-06
-0.719511, -1.6622099999999998e-06
-0.729505, -1.67034e-06
-0.739499, -1.67971e-06
-0.749493, -1.6834599999999998e-06
-0.759487, -1.68846e-06
-0.769481, -1.68971e-06
-0.779474, -1.69409e-06
-0.789468, -1.69034e-06
-0.799462, -1.6928399999999997e-06
-0.809456, -1.68909e-06
-0.81945, -1.69221e-06
-0.829444, -1.68846e-06
-0.839438, -1.69221e-06
-0.849432, -1.68846e-06
-0.859426, -1.69034e-06
-0.86942, -1.69096e-06
-0.879413, -1.69471e-06
-0.889407, -1.69409e-06
-0.899401, -1.69784e-06
-0.909395, -1.69846e-06
-0.919389, -1.7022099999999998e-06
-0.929383, -1.7009599999999998e-06
-0.939377, -1.7059599999999998e-06
-0.949371, -1.7103399999999998e-06
-0.959365, -1.7103399999999998e-06
-0.969359, -1.71534e-06
-0.979353, -1.71909e-06
-0.989347, -1.7228399999999999e-06
-0.99934, -1.72659e-06
-1.00933, -1.7303399999999998e-06
-1.01933, -1.73346e-06
-1.02932, -1.73846e-06
-1.03932, -1.74159e-06
-1.04931, -1.7472099999999998e-06
-1.0593, -1.7528399999999998e-06
-1.0693, -1.75471e-06
-1.07929, -1.75471e-06
-1.08929, -1.7847099999999999e-06
-1.09928, -1.77784e-06
-1.10927, -1.78972e-06
-1.11927, -1.77846e-06
-1.12926, -1.7878400000000001e-06
-1.13926, -1.7915899999999999e-06
-1.14925, -1.7953399999999998e-06
-1.15924, -1.8022199999999998e-06
-1.16924, -1.80972e-06
-1.17923, -1.8153399999999998e-06
-1.18922, -1.82034e-06
-1.19922, -1.82284e-06
-1.20921, -1.83034e-06
-1.21921, -1.8340899999999999e-06
-1.2292, -1.83722e-06
-1.23919, -1.84284e-06
-1.24919, -1.84534e-06
-1.25918, -1.85097e-06
-1.26918, -1.85472e-06
-1.27917, -1.8578399999999999e-06
-1.28916, -1.8647199999999998e-06
-1.29916, -1.86722e-06
-1.30915, -1.87284e-06
-1.31915, -1.87597e-06
-1.32914, -1.88409e-06
-1.33913, -1.8872199999999998e-06
-1.34913, -1.89347e-06
-1.35912, -1.8990899999999999e-06
-1.36911, -1.9072199999999998e-06
-1.37911, -1.9147199999999998e-06
-1.3891, -1.92409e-06
-1.3991, -1.93409e-06
-1.40909, -1.94472e-06
-1.41908, -1.95409e-06
-1.42908, -1.96534e-06
-1.43907, -1.97722e-06
-1.44907, -1.98722e-06
-1.45906, -1.99409e-06
-1.46905, -2.00597e-06
-1.47905, -2.01534e-06
-1.48904, -2.0253399999999997e-06
-1.49904, -2.03722e-06
-1.50903, -2.05034e-06
-1.51902, -2.06034e-06
-1.52902, -2.07784e-06
-1.53901, -2.09222e-06
-1.549, -2.11035e-06
-1.559, -2.12535e-06
-1.56899, -2.1522199999999996e-06
-1.57899, -2.17222e-06
-1.58898, -2.20535e-06
-1.59897, -2.23847e-06
-1.60897, -2.28472e-06
-1.61896, -2.3365999999999998e-06
-1.62896, -2.4116e-06
-1.63895, -2.4991e-06
-1.64894, -2.6259800000000002e-06
-1.65894, -2.7878599999999998e-06
-1.66893, -3.01973e-06
-1.67893, -3.33036e-06
-1.68892, -3.7691199999999998e-06
-1.69891, -4.37038e-06
-1.70891, -5.21914e-06
-1.7189, -6.39479e-06
-1.7289, -8.03294e-06
-1.73889, -1.02611e-05
-1.74888, -1.32805e-05
-1.75888, -1.7267499999999997e-05
-1.76887, -2.24722e-05
-1.77886, -2.8984799999999997e-05
-1.78886, -3.702239999999999e-05
-1.79885, -4.6591299999999996e-05
-1.80885, -5.77728e-05
-1.81884, -7.041049999999999e-05
-1.82883, -8.449819999999999e-05
-1.83883, -9.99234e-05
-1.84882, -0.000116467
-1.85882, -0.000134043
-1.86881, -0.000152605
-1.8788, -0.00017186199999999998
-1.8888, -0.000191159
-1.89879, -0.000211597
-1.90879, -0.00023191
-1.91878, -0.000252848
-1.92877, -0.000273785
-1.93877, -0.000294723
-1.94876, -0.00031559899999999996
-1.95876, -0.000335849
-1.96875, -0.000355787
-1.97874, -0.00037503699999999994
-1.98874, -0.000393725
-1.99873, -0.000413413
-2.00872, -0.000430163
-2.01872, -0.000444663
-2.02871, -0.000457226
-2.03871, -0.000468163
-2.0487, -0.00047616399999999995
-2.05869, -0.00048103899999999995
-2.06869, -0.000481851
-2.07868, -0.000478101
-2.08868, -0.000468913
-2.09867, -0.000452663
-2.10866, -0.000429913
-2.11866, -0.000401912
-2.12865, -0.00037153699999999996
-2.13865, -0.000342349
-2.14864, -0.000319911
-2.15863, -0.000305723
-2.16863, -0.000297973
-2.17862, -0.000294473
-2.18861, -0.000294286
-2.19861, -0.000296223
-2.2086, -0.000300661
-2.2186, -0.00030753599999999996
-2.22859, -0.000319099
-2.23858, -0.000330286
-2.24858, -0.00034059899999999997
-2.25857, -0.000352912
-2.26857, -0.00036622399999999995
-2.27856, -0.000380287
-2.28855, -0.00039441199999999996
-2.29855, -0.000408913
-2.30854, -0.000422288
-2.31854, -0.000435288
-2.32853, -0.00044772599999999996
-2.33852, -0.00045922599999999997
-2.34852, -0.00046772599999999996
-2.35851, -0.000474288
-2.36851, -0.000471976
-2.3785, -0.00045966299999999997
-2.38849, -0.000448851
-2.39849, -0.000437413
-2.40848, -0.000428725
-2.41847, -0.00042185
-2.42847, -0.000411163
-2.43846, -0.00040303699999999997
-2.44846, -0.000396975
-2.45845, -0.000390037
-2.46844, -0.000381475
-2.47844, -0.00037516199999999996
-2.48843, -0.000370224
-2.49843, -0.000363912
-2.50842, -0.00035734899999999997
-2.51841, -0.00035278699999999997
-2.52841, -0.00034816199999999995
-2.5384, -0.00034278699999999994
-2.5484, -0.00033816099999999996
-2.55839, -0.00033447399999999997
-2.56838, -0.000330474
-2.57838, -0.00032591099999999996
-2.58837, -0.00032266099999999997
-2.59836, -0.000319161
-2.60836, -0.000315724
-2.61835, -0.000312474
-2.62835, -0.000309348
-2.63834, -0.000306723
-2.64833, -0.000304723
-2.65833, -0.000302036
-2.66832, -0.000298723
-2.67832, -0.000296661
-2.68831, -0.000293786
-2.6983, -0.000291786
-2.7083, -0.000288723
-2.6983, -0.000286786
-2.68831, -0.00028466099999999996
-2.67832, -0.000282348
-2.66832, -0.000280098
-2.65833, -0.000278348
-2.64833, -0.000276723
-2.63834, -0.00027441
-2.62835, -0.00027266000000000004
-2.61835, -0.00027103500000000004
-2.60836, -0.000269598
-2.59836, -0.000267723
-2.58837, -0.000265785
-2.57838, -0.00026466
-2.56838, -0.00026316
-2.55839, -0.000261473
-2.5484, -0.000259785
-2.5384, -0.000258723
-2.52841, -0.000257598
-2.51841, -0.00025578499999999996
-2.50842, -0.00025453499999999996
-2.49843, -0.000253285
-2.48843, -0.000252223
-2.47844, -0.000250785
-2.46844, -0.00024965999999999996
-2.45845, -0.000248223
-2.44846, -0.000247598
-2.43846, -0.000246222
-2.42847, -0.00024478499999999997
-2.41847, -0.000243722
-2.40848, -0.000242723
-2.39849, -0.000239722
-2.38849, -0.00023665999999999997
-2.3785, -0.000233722
-2.36851, -0.000230722
-2.35851, -0.000226722
-2.34852, -0.000222347
-2.33852, -0.000217347
-2.32853, -0.000211597
-2.31854, -0.00020428399999999997
-2.30854, -0.00019578399999999998
-2.29855, -0.000186222
-2.28855, -0.00017553399999999998
-2.27856, -0.00016365899999999997
-2.26857, -0.000150596
-2.25857, -0.00013678299999999997
-2.24858, -0.000122221
-2.23858, -0.00010709499999999999
-2.22859, -9.14701e-05
-2.2186, -7.58449e-05
-2.2086, -6.00321e-05
-2.19861, -4.45321e-05
-2.18861, -2.95317e-05
-2.17862, -1.53439e-05
-2.16863, -2.2187199999999997e-06
-2.15863, 9.21893e-06
-2.14864, 1.8828399999999997e-05
-2.13865, 2.5928499999999997e-05
-2.12865, 2.97411e-05
-2.11866, 2.9847299999999998e-05
-2.10866, 2.59723e-05
-2.09867, 1.86722e-05
-2.08868, 9.440759999999998e-06
-2.07868, 5.31197e-08
-2.06869, -8.66576e-06
-2.05869, -1.64659e-05
-2.0487, -2.33722e-05
-2.03871, -2.93911e-05
-2.02871, -3.47912e-05
-2.01872, -3.9828699999999994e-05
-2.00872, -4.41413e-05
-1.99873, -4.75726e-05
-1.98874, -5.01976e-05
-1.97874, -5.22414e-05
-1.96875, -5.3704e-05
-1.95876, -5.44477e-05
-1.94876, -5.4479e-05
-1.93877, -5.39102e-05
-1.92877, -5.27789e-05
-1.91878, -5.10602e-05
-1.90879, -4.8772599999999994e-05
-1.89879, -4.6066299999999996e-05
-1.8888, -4.30538e-05
-1.8788, -3.97412e-05
-1.86881, -3.6247399999999995e-05
-1.85882, -3.26599e-05
-1.84882, -2.90536e-05
-1.83883, -2.54598e-05
-1.82883, -2.1941e-05
-1.81884, -1.86159e-05
-1.80885, -1.55096e-05
-1.79885, -1.2722099999999998e-05
-1.78886, -1.02845e-05
-1.77886, -8.21575e-06
-1.76887, -6.52822e-06
-1.75888, -5.1782e-06
-1.74888, -4.08444e-06
-1.73889, -3.22819e-06
-1.7289, -2.5594199999999997e-06
-1.7189, -2.0031699999999997e-06
-1.70891, -1.57814e-06
-1.69891, -1.20346e-06
-1.68892, -9.07826e-07
-1.67893, -6.70323e-07
-1.66893, -4.72195e-07
-1.65894, -3.15943e-07
-1.64894, -1.86565e-07
-1.63895, -8.406399999999999e-08
-1.62896, -9.36985e-10
-1.61896, 6.82197e-08
-1.60897, 1.29283e-07
-1.59897, 1.75284e-07
-1.58898, 2.1840999999999998e-07
-1.57899, 2.5366e-07
-1.56899, 2.90223e-07
-1.559, 3.20724e-07
-1.549, 3.55849e-07
-1.53901, 3.85662e-07
-1.52902, 4.2359999999999995e-07
-1.51902, 4.65163e-07
-1.50903, 5.115389999999999e-07
-1.49904, 5.63727e-07
-1.48904, 6.286659999999999e-07
-1.47905, 7.11167e-07
-1.46905, 8.139189999999999e-07
-1.45906, 9.41296e-07
-1.44907, 1.09942e-06
-1.43907, 1.2956099999999998e-06
-1.42908, 1.53062e-06
-1.41908, 1.79375e-06
-1.40909, 2.0734699999999997e-06
-1.3991, 2.33785e-06
-1.3891, 2.55723e-06
-1.37911, 2.7040999999999997e-06
-1.36911, 2.78098e-06
-1.35912, 2.78723e-06
-1.34913, 2.7497299999999997e-06
-1.33913, 2.6747299999999995e-06
-1.32914, 2.5853499999999997e-06
-1.31915, 2.4966e-06
-1.30915, 2.4053499999999998e-06
-1.29916, 2.32222e-06
-1.28916, 2.24722e-06
-1.27917, 2.18534e-06
-1.26918, 2.12159e-06
-1.25918, 2.0728399999999997e-06
-1.24919, 2.0247199999999996e-06
-1.23919, 1.98409e-06
-1.2292, 1.95097e-06
-1.21921, 1.92409e-06
-1.20921, 1.90284e-06
-1.19922, 1.8847199999999998e-06
-1.18922, 1.8659699999999998e-06
-1.17923, 1.85284e-06
-1.16924, 1.84034e-06
-1.15924, 1.82596e-06
-1.14925, 1.81346e-06
-1.13926, 1.80409e-06
-1.12926, 1.7965899999999998e-06
-1.11927, 1.79096e-06
-1.10927, 1.7859599999999999e-06
-1.09928, 1.78221e-06
-1.08929, 1.77909e-06
-1.07929, 1.78409e-06
-1.0693, 1.78972e-06
-1.0593, 1.79722e-06
-1.04931, 1.80409e-06
-1.03932, 1.8165899999999998e-06
-1.02932, 1.82722e-06
-1.01933, 1.84159e-06
-1.00933, 1.84659e-06
-0.99934, 1.8590899999999998e-06
-0.989347, 1.86846e-06
-0.979353, 1.87847e-06
-0.969359, 1.88972e-06
-0.959365, 1.9003399999999999e-06
-0.949371, 1.9115899999999998e-06
-0.939377, 1.9272199999999997e-06
-0.929383, 1.93909e-06
-0.919389, 1.95597e-06
-0.909395, 1.96597e-06
-0.899401, 1.98722e-06
-0.889407, 2.00034e-06
-0.879413, 2.01784e-06
-0.86942, 2.02972e-06
-0.859426, 2.0528400000000003e-06
-0.849432, 2.0697199999999996e-06
-0.839438, 2.10034e-06
-0.829444, 2.1209699999999997e-06
-0.81945, 2.1541e-06
-0.809456, 2.1847199999999997e-06
-0.799462, 2.2166e-06
-0.789468, 2.24785e-06
-0.779474, 2.29097e-06
-0.769481, 2.32597e-06
-0.759487, 2.3603499999999998e-06
-0.749493, 2.39347e-06
-0.739499, 2.4172199999999996e-06
-0.729505, 2.4340999999999997e-06
-0.719511, 2.45535e-06
-0.709517, 2.4597199999999996e-06
-0.699523, 2.4666e-06
-0.689529, 2.47348e-06
-0.679535, 2.4841e-06
-0.669541, 2.4891e-06
-0.659548, 2.5022199999999997e-06
-0.649554, 2.52285e-06
-0.63956, 2.5353500000000002e-06
-0.629566, 2.5534799999999996e-06
-0.619572, 2.58035e-06
-0.609578, 2.5941e-06
-0.599584, 2.61348e-06
-0.58959, 2.6334799999999997e-06
-0.579596, 2.64848e-06
-0.569602, 2.66223e-06
-0.559609, 2.69035e-06
-0.549615, 2.7040999999999997e-06
-0.539621, 2.7241e-06
-0.529627, 2.73973e-06
-0.519633, 2.7616e-06
-0.509639, 2.77348e-06
-0.499645, 2.77786e-06
-0.489651, 2.79598e-06
-0.479657, 2.81598e-06
-0.469663, 2.82536e-06
-0.45967, 2.85286e-06
-0.449676, 2.8709799999999996e-06
-0.439682, 2.8853599999999997e-06
-0.429688, 2.90723e-06
-0.419694, 2.94223e-06
-0.4097, 2.96192e-06
-0.399706, 2.9953599999999995e-06
-0.389712, 3.00286e-06
-0.379718, 3.03036e-06
-0.369724, 3.05598e-06
-0.359731, 3.0766099999999998e-06
-0.349737, 3.09911e-06
-0.339743, 3.11723e-06
-0.329749, 3.14099e-06
-0.319755, 3.1659899999999996e-06
-0.309761, 3.18724e-06
-0.299767, 3.20474e-06
-0.289773, 3.22349e-06
-0.279779, 3.2409899999999997e-06
-0.269785, 3.2547399999999998e-06
-0.259792, 3.26661e-06
-0.249798, 3.2753599999999998e-06
-0.239804, 3.2834899999999997e-06
-0.22981, 3.28411e-06
-0.219816, 3.2822399999999995e-06
-0.209822, 3.2797399999999995e-06
-0.199828, 3.28724e-06
-0.189834, 3.2778599999999997e-06
-0.17984, 3.2728599999999998e-06
-0.169846, 3.28161e-06
-0.159853, 3.28661e-06
-0.149859, 3.3022399999999997e-06
-0.139865, 3.3203599999999997e-06
-0.129871, 3.33974e-06
-0.119877, 3.37224e-06
-0.109883, 3.4103699999999996e-06
-0.0998891, 3.44599e-06
-0.0898951, 3.4822399999999997e-06
-0.0799013, 3.51287e-06
-0.0699075, 3.53349e-06
-0.0599135, 3.5322399999999997e-06
-0.0499196, 3.50474e-06
-0.0399256, 3.47912e-06
-0.0299316, 3.44286e-06
-0.019938, 3.40911e-06
-0.00994404, 3.37161e-06
4.99413E-05, 3.3422399999999998e-06
0.0100439, 3.3141099999999996e-06
0.0200379, 3.28724e-06
0.0300315, 3.24974e-06
0.0400255, 3.23099e-06
0.0500195, 3.21349e-06
0.0600134, 3.1997399999999995e-06
0.0700074, 3.18286e-06
0.080001, 3.1666099999999997e-06
0.089995, 3.15349e-06
0.099989, 3.1522299999999996e-06
0.109983, 3.15661e-06
0.119977, 3.1459899999999998e-06
0.129971, 3.1234899999999995e-06
0.139964, 3.1241099999999997e-06
0.149958, 3.12723e-06
0.159952, 3.14536e-06
0.169946, 3.15036e-06
0.17994, 3.1672399999999998e-06
0.189934, 3.1884899999999998e-06
0.199928, 3.19911e-06
0.209922, 3.2172399999999997e-06
0.219916, 3.2459899999999996e-06
0.22991, 3.2691099999999996e-06
0.239904, 3.2966099999999998e-06
0.249897, 3.32661e-06
0.259891, 3.35599e-06
0.269885, 3.39099e-06
0.279879, 3.44099e-06
0.289873, 3.32974e-06
0.299867, 3.4053599999999998e-06
0.309861, 3.5184899999999996e-06
0.319855, 3.38474e-06
0.329849, 3.40974e-06
0.339843, 3.46537e-06
0.349837, 3.54849e-06
0.35983, 3.6784899999999997e-06
0.369824, 3.801e-06
0.379818, 4.06662e-06
0.389812, 4.46351e-06
0.399806, 4.59288e-06
0.4098, 4.708510000000001e-06
0.419794, 4.86726e-06
0.429788, 5.056009999999999e-06
0.439782, 5.33039e-06
0.449776, 5.63727e-06
0.45977, 5.990409999999999e-06
0.469764, 6.419159999999999e-06
0.479757, 6.91917e-06
0.489751, 7.49293e-06
0.499745, 8.08043e-06
0.509739, 8.685449999999998e-06
0.519733, 9.228579999999999e-06
0.529727, 9.68796e-06
0.539721, 1.00467e-05
0.549715, 1.0290499999999999e-05
0.559709, 1.04061e-05
0.569703, 1.0431699999999999e-05
0.579696, 1.0382999999999999e-05
0.58969, 1.03736e-05
0.599684, 1.02848e-05
0.609678, 1.00923e-05
0.619672, 9.93734e-06
0.629666, 9.821709999999998e-06
0.63966, 9.702959999999999e-06
0.649654, 9.61421e-06
0.659648, 9.47171e-06
0.669642, 9.42233e-06
0.679635, 9.37546e-06
0.689629, 9.2817e-06
0.699623, 9.23733e-06
0.709617, 9.214829999999999e-06
0.719611, 9.22545e-06
0.729605, 9.2117e-06
0.739599, 9.174200000000001e-06
0.749593, 9.18108e-06
0.759587, 9.1867e-06
0.769581, 9.178579999999999e-06
0.779574, 9.18608e-06
0.789568, 9.1442e-06
0.799562, 9.161699999999999e-06
0.809556, 9.146699999999998e-06
0.81955, 9.14045e-06
0.829544, 9.15358e-06
0.839538, 9.236700000000001e-06
0.849532, 9.222950000000001e-06
0.859526, 9.1867e-06
0.86952, 9.18108e-06
0.879513, 9.18983e-06
0.889507, 9.20983e-06
0.899501, 9.26483e-06
0.909495, 9.19045e-06
0.919489, 9.22733e-06
0.929483, 9.25858e-06
0.939477, 9.26608e-06
0.949471, 9.32233e-06
0.959465, 9.3242e-06
0.969459, 9.39733e-06
0.979453, 9.474209999999999e-06
0.989446, 9.52546e-06
0.99944, 9.626089999999998e-06
1.00943, 9.700459999999999e-06
1.01943, 9.819839999999998e-06
1.02942, 9.92984e-06
1.03942, 1.00661e-05
1.04941, 1.01973e-05
1.0594, 1.03305e-05
1.0694, 1.05005e-05
1.07939, 1.06699e-05
1.08939, 1.08411e-05
1.09938, 1.10286e-05
1.10937, 1.12224e-05
1.11937, 1.1424899999999998e-05
1.12936, 1.1618e-05
1.13935, 1.1806699999999998e-05
1.14935, 1.2004200000000001e-05
1.15934, 1.2182399999999999e-05
1.16934, 1.23824e-05
1.17933, 1.2591799999999999e-05
1.18932, 1.2834899999999998e-05
1.19932, 1.3093e-05
1.20931, 1.33811e-05
1.21931, 1.3683e-05
1.2293, 1.40487e-05
1.23929, 1.4446799999999999e-05
1.24929, 1.4888699999999999e-05
1.25928, 1.5364299999999998e-05
1.26928, 1.59037e-05
1.27927, 1.6484599999999998e-05
1.28926, 1.71221e-05
1.29926, 1.77846e-05
1.30925, 1.84721e-05
1.31925, 1.92222e-05
1.32924, 2.00222e-05
1.33923, 2.0834700000000002e-05
1.34923, 2.1703499999999996e-05
1.35922, 2.2609699999999998e-05
1.36921, 2.34972e-05
1.37921, 2.43598e-05
1.3892, 2.5184799999999996e-05
1.3992, 2.5947299999999998e-05
1.40919, 2.6640999999999998e-05
1.41918, 2.7184799999999998e-05
1.42918, 2.7566099999999997e-05
1.43917, 2.77223e-05
1.44917, 2.77223e-05
1.45916, 2.75098e-05
1.46915, 2.7053499999999998e-05
1.47915, 2.6365999999999998e-05
1.48914, 2.5572299999999996e-05
1.49914, 2.47222e-05
1.50913, 2.37222e-05
1.51912, 2.26722e-05
1.52912, 2.15972e-05
1.53911, 2.07284e-05
1.5491, 1.9884699999999996e-05
1.5591, 1.90472e-05
1.56909, 1.82034e-05
1.57909, 1.75471e-05
1.58908, 1.69471e-05
1.59907, 1.63596e-05
1.60907, 1.57471e-05
1.61906, 1.52596e-05
1.62906, 1.48033e-05
1.63905, 1.43596e-05
1.64904, 1.38971e-05
1.65904, 1.35096e-05
1.66903, 1.3178299999999999e-05
1.67903, 1.28221e-05
1.68902, 1.2472099999999999e-05
1.69901, 1.21533e-05
1.70901, 1.18783e-05
1.719, 1.1622e-05
1.729, 1.13345e-05
1.73899, 1.1065799999999998e-05
1.74898, 1.08408e-05
1.75898, 1.0622e-05
1.76897, 1.03908e-05
1.77896, 1.0196999999999999e-05
1.78896, 1.00158e-05
1.79895, 9.85951e-06
1.80895, 9.70328e-06
1.81894, 9.54702e-06
1.82893, 9.422019999999999e-06
1.83893, 9.32827e-06
1.84892, 9.234519999999999e-06
1.85892, 9.14075e-06
1.86891, 9.07202e-06
1.8789, 9.04076e-06
1.8889, 8.99076e-06
1.89889, 8.95326e-06
1.90889, 8.95951e-06
1.91888, 8.95951e-06
1.92887, 8.97827e-06
1.93887, 8.99701e-06
1.94886, 9.05325e-06
1.95885, 9.122009999999999e-06
1.96885, 9.222009999999998e-06
1.97884, 9.309509999999999e-06
1.98884, 9.40328e-06
1.99883, 9.553269999999998e-06
2.00882, 9.72826e-06
1.99883, 8.08449e-06
1.98884, 7.0407400000000005e-06
1.97884, 6.29072e-06
1.96885, 5.715699999999999e-06
1.95885, 5.24695e-06
1.94886, 4.8531999999999995e-06
1.93887, 4.54068e-06
1.92887, 4.234429999999999e-06
1.91888, 4.028179999999999e-06
1.90889, 3.8031799999999997e-06
1.89889, 3.62787e-06
1.8889, 3.44286e-06
1.8789, 3.29411e-06
1.86891, 3.1528599999999997e-06
1.85892, 3.0209800000000003e-06
1.84892, 2.8828599999999997e-06
1.83893, 2.76973e-06
1.82893, 2.66535e-06
1.81894, 2.56848e-06
1.80895, 2.45847e-06
1.79895, 2.3628499999999997e-06
1.78896, 2.2772199999999997e-06
1.77896, 2.2009699999999998e-06
1.76897, 2.11784e-06
1.75898, 2.03784e-06
1.74898, 1.96034e-06
1.73899, 1.9003399999999999e-06
1.729, 1.8297099999999999e-06
1.719, 1.76221e-06
1.70901, 1.6915899999999998e-06
1.69901, 1.6390899999999998e-06
1.68902, 1.57159e-06
1.67903, 1.51909e-06
1.66903, 1.4572099999999999e-06
1.65904, 1.40033e-06
1.64904, 1.35533e-06
1.63905, 1.30783e-06
1.62906, 1.24533e-06
1.61906, 1.19658e-06
1.60907, 1.1497e-06
1.59907, 1.1065799999999998e-06
1.58908, 1.05345e-06
1.57909, 1.00845e-06
1.56909, 9.59702e-07
1.5591, 9.228249999999999e-07
1.5491, 8.71575e-07
1.53911, 8.32825e-07
1.52912, 7.87823e-07
1.51912, 7.49073e-07
1.50913, 7.03449e-07
1.49914, 6.653210000000001e-07
1.48914, 6.21572e-07
1.47915, 5.89697e-07
1.46915, 5.40946e-07
1.45916, 5.05321e-07
1.44917, 4.6531899999999996e-07
1.43917, 4.3094399999999997e-07
1.42918, 3.8719399999999997e-07
1.41918, 3.49693e-07
1.40919, 3.0659799999999995e-07
1.3992, 2.71785e-07
1.3892, 2.34597e-07
1.37921, 1.9209699999999998e-07
1.36921, 1.5209600000000001e-07
1.35922, 1.15721e-07
1.34923, 7.959489999999999e-08
1.33923, 4.3969399999999997e-08
1.32924, -1.6562899999999999e-09
1.31925, -4.02193e-08
1.30925, -7.77825e-08
1.29926, -1.1553299999999999e-07
1.28926, -1.55284e-07
1.27927, -1.9340899999999998e-07
1.26928, -2.34785e-07
1.25928, -2.75223e-07
1.24929, -3.12911e-07
1.23929, -3.50974e-07
1.2293, -3.8859999999999997e-07
1.21931, -4.27725e-07
1.20931, -4.65851e-07
1.19932, -5.009139999999999e-07
1.18932, -5.41852e-07
1.17933, -5.74228e-07
1.16934, -6.14228e-07
1.15934, -6.45166e-07
1.14935, -6.831669999999999e-07
1.13935, -7.10417e-07
1.12936, -7.4848e-07
1.11937, -7.764809999999999e-07
1.10937, -8.11169e-07
1.09938, -8.375439999999999e-07
1.08939, -8.74232e-07
1.07939, -9.012329999999999e-07
1.0694, -9.33671e-07
1.0594, -9.62921e-07
1.04941, -9.99672e-07
1.03942, -1.02823e-06
1.02942, -1.06117e-06
1.01943, -1.09455e-06
1.00943, -1.14042e-06
0.99944, -1.1786099999999999e-06
0.989446, -1.2253e-06
0.979453, -1.27405e-06
0.969459, -1.3285499999999998e-06
0.959465, -1.38443e-06
0.949471, -1.44205e-06
0.939477, -1.5027399999999999e-06
0.929483, -1.56874e-06
0.919489, -1.6365599999999999e-06
0.909495, -1.70262e-06
0.899501, -1.76909e-06
0.889507, -1.8340899999999999e-06
0.879513, -1.90097e-06
0.86952, -1.95784e-06
0.859526, -2.01597e-06
0.849532, -2.06597e-06
0.839538, -2.11222e-06
0.829544, -2.14597e-06
0.81955, -2.17847e-06
0.809556, -2.1978499999999996e-06
0.799562, -2.2141e-06
0.789568, -2.2228500000000002e-06
0.779574, -2.2241e-06
0.769581, -2.22035e-06
0.759587, -2.21347e-06
0.749593, -2.20285e-06
0.739599, -2.1891e-06
0.729605, -2.1747200000000002e-06
0.719611, -2.15347e-06
0.709617, -2.1316e-06
0.699623, -2.1134699999999998e-06
0.689629, -2.09472e-06
0.679635, -2.07409e-06
0.669642, -2.05347e-06
0.659648, -2.03534e-06
0.649654, -2.01534e-06
0.63966, -1.99847e-06
0.629666, -1.9809699999999998e-06
0.619672, -1.96534e-06
0.609678, -1.95284e-06
0.599684, -1.9428399999999997e-06
0.58969, -1.92409e-06
0.579696, -1.91534e-06
0.569703, -1.9059699999999999e-06
0.559709, -1.90097e-06
0.549715, -1.89097e-06
0.539721, -1.88284e-06
0.529727, -1.8809699999999999e-06
0.519733, -1.87534e-06
0.509739, -1.87222e-06
0.499745, -1.87284e-06
0.489751, -1.8678399999999998e-06
0.479757, -1.8690899999999998e-06
0.469764, -1.8659699999999998e-06
0.45977, -1.86847e-06
0.449776, -1.8678399999999998e-06
0.439782, -1.86847e-06
0.429788, -1.87097e-06
0.419794, -1.87472e-06
0.4098, -1.87534e-06
0.399806, -1.88409e-06
0.389812, -1.8872199999999998e-06
0.379818, -1.89347e-06
0.369824, -1.89784e-06
0.35983, -1.90847e-06
0.349837, -1.91097e-06
0.339843, -1.92034e-06
0.329849, -1.92847e-06
0.319855, -1.9403399999999997e-06
0.309861, -1.94409e-06
0.299867, -1.9565899999999998e-06
0.289873, -1.96534e-06
0.279879, -1.9803399999999997e-06
0.269885, -1.98972e-06
0.259891, -2.00159e-06
0.249897, -2.0128400000000003e-06
0.239904, -2.02659e-06
0.22991, -2.0359699999999997e-06
0.219916, -2.05034e-06
0.209922, -2.0609700000000003e-06
0.199928, -2.0759699999999997e-06
0.189934, -2.08659e-06
0.17994, -2.10284e-06
0.169946, -2.11409e-06
0.159952, -2.12597e-06
0.149958, -2.13972e-06
0.139964, -2.15597e-06
0.129971, -2.1665999999999997e-06
0.119977, -2.17785e-06
0.109983, -2.19097e-06
0.099989, -2.20785e-06
0.089995, -2.21785e-06
0.080001, -2.2291e-06
0.0700074, -2.2416e-06
0.0600134, -2.25535e-06
0.0500195, -2.2666e-06
0.0400255, -2.28222e-06
0.0300315, -2.2916e-06
0.0200379, -2.30535e-06
0.0100439, -2.3140999999999996e-06
##END=$$ End of the data block
