##TITLE=Spectrum
##JCAMP-DX=5.00 $$ chemotion-converter-app (1.1.0)
##DATA TYPE=SIZE EXCLUSION CHROMATOGRAPHY
##DATA CLASS=XYPOINTS
##ORIGIN=
##OWNER=
##XUNITS=G/MOL
##YUNITS=ARBITRARY UNITS
##NO_DEC=1
##SOFTWARE=WINGPC
##VERSION=8#1
##FIRSTX=8.49612E+1
##LASTX=1.50518E+3
##MINX=84.9612
##MAXX=1505.18
##MINY=0.0
##MAXY=18.0131
##NPOINTS=188
##FIRSTY=3.87933E+0
##XUNITS=G/MOL
##YUNITS=ARBITRARY UNITS
##XYPOINTS=(XY..XY)
8.49612E+1, 3.87933E+0
8.62773E+1, 3.92261E+0
8.76137E+1, 3.99575E+0
8.89709E+1, 4.12770E+0
9.03491E+1, 4.29588E+0
9.17486E+1, 4.50991E+0
9.31698E+1, 4.78643E+0
9.46131E+1, 5.08641E+0
9.60786E+1, 5.37814E+0
9.75669E+1, 5.74109E+0
9.90783E+1, 6.17026E+0
1.00613E+2, 6.63719E+0
1.02172E+2, 7.08645E+0
1.03754E+2, 7.58976E+0
1.05361E+2, 8.16515E+0
1.06993E+2, 8.69826E+0
1.08651E+2, 9.28757E+0
1.10334E+2, 9.96382E+0
1.12043E+2, 1.06428E+1
1.13779E+2, 1.13764E+1
1.15541E+2, 1.21209E+1
1.17331E+2, 1.27877E+1
1.19148E+2, 1.34293E+1
1.20994E+2, 1.41768E+1
1.22868E+2, 1.48399E+1
1.24771E+2, 1.54148E+1
1.26704E+2, 1.60622E+1
1.28667E+2, 1.67008E+1
1.30660E+2, 1.70938E+1
1.32684E+2, 1.74982E+1
1.34739E+2, 1.77835E+1
1.36826E+2, 1.79342E+1
1.38946E+2, 1.80131E+1
1.41098E+2, 1.79502E+1
1.43284E+2, 1.77895E+1
1.45503E+2, 1.75411E+1
1.47757E+2, 1.70816E+1
1.50046E+2, 1.65505E+1
1.52370E+2, 1.58489E+1
1.54730E+2, 1.49859E+1
1.57127E+2, 1.41441E+1
1.59561E+2, 1.33556E+1
1.62033E+2, 1.21490E+1
1.64543E+2, 1.11112E+1
1.67091E+2, 1.02477E+1
1.69680E+2, 9.24441E+0
1.72308E+2, 8.28383E+0
1.74977E+2, 7.48207E+0
1.77688E+2, 6.64639E+0
1.80440E+2, 5.76193E+0
1.83235E+2, 5.10901E+0
1.86074E+2, 4.61862E+0
1.88956E+2, 4.12211E+0
1.91883E+2, 3.67864E+0
1.94855E+2, 3.34400E+0
1.97874E+2, 3.06489E+0
2.00939E+2, 2.80808E+0
2.04051E+2, 2.62455E+0
2.07212E+2, 2.51226E+0
2.10422E+2, 2.42433E+0
2.13681E+2, 2.37405E+0
2.16991E+2, 2.35040E+0
2.20353E+2, 2.34164E+0
2.23766E+2, 2.34590E+0
2.27232E+2, 2.36007E+0
2.30752E+2, 2.38445E+0
2.34326E+2, 2.41408E+0
2.37956E+2, 2.43789E+0
2.41642E+2, 2.46296E+0
2.45385E+2, 2.49220E+0
2.49186E+2, 2.51558E+0
2.53046E+2, 2.53555E+0
2.56966E+2, 2.55896E+0
2.60946E+2, 2.57275E+0
2.64989E+2, 2.58163E+0
2.69093E+2, 2.58815E+0
2.73262E+2, 2.59024E+0
2.77495E+2, 2.58811E+0
2.81793E+2, 2.58231E+0
2.86158E+2, 2.57518E+0
2.90591E+2, 2.56665E+0
2.95092E+2, 2.55250E+0
2.99663E+2, 2.53238E+0
3.04305E+2, 2.51480E+0
3.09019E+2, 2.48870E+0
3.13806E+2, 2.45957E+0
3.18666E+2, 2.42983E+0
3.23603E+2, 2.39457E+0
3.28615E+2, 2.33552E+0
3.33706E+2, 2.27632E+0
3.38875E+2, 2.22068E+0
3.44124E+2, 2.14961E+0
3.49455E+2, 2.07426E+0
3.54868E+2, 2.00430E+0
3.60365E+2, 1.92595E+0
3.65947E+2, 1.83420E+0
3.71616E+2, 1.75736E+0
3.77372E+2, 1.68717E+0
3.83218E+2, 1.61808E+0
3.89154E+2, 1.56403E+0
3.95182E+2, 1.51480E+0
4.01303E+2, 1.46577E+0
4.07520E+2, 1.42570E+0
4.13832E+2, 1.38590E+0
4.20243E+2, 1.34300E+0
4.26752E+2, 1.31052E+0
4.33363E+2, 1.28253E+0
4.40076E+2, 1.25221E+0
4.46893E+2, 1.21706E+0
4.53815E+2, 1.18605E+0
4.60845E+2, 1.15588E+0
4.67983E+2, 1.11710E+0
4.75233E+2, 1.07289E+0
4.82594E+2, 1.03507E+0
4.90070E+2, 9.84433E-1
4.97661E+2, 9.37432E-1
5.05370E+2, 8.94670E-1
5.13198E+2, 8.31955E-1
5.21148E+2, 7.85169E-1
5.29220E+2, 7.43778E-1
5.37418E+2, 6.91976E-1
5.45743E+2, 6.44309E-1
5.54197E+2, 5.98263E-1
5.62781E+2, 5.63919E-1
5.71499E+2, 5.22155E-1
5.80352E+2, 4.87508E-1
5.89341E+2, 4.58412E-1
5.98470E+2, 4.27016E-1
6.07741E+2, 3.93990E-1
6.17155E+2, 3.71198E-1
6.26715E+2, 3.47881E-1
6.36423E+2, 3.28037E-1
6.46281E+2, 3.12928E-1
6.56292E+2, 2.98560E-1
6.66458E+2, 2.83693E-1
6.76782E+2, 2.72740E-1
6.87266E+2, 2.62432E-1
6.97912E+2, 2.52603E-1
7.08722E+2, 2.44722E-1
7.19701E+2, 2.36412E-1
7.30849E+2, 2.27434E-1
7.42170E+2, 2.18656E-1
7.53666E+2, 2.11172E-1
7.65341E+2, 2.04577E-1
7.77196E+2, 1.98206E-1
7.89235E+2, 1.92995E-1
8.01461E+2, 1.87749E-1
8.13876E+2, 1.81811E-1
8.26483E+2, 1.76082E-1
8.39285E+2, 1.70027E-1
8.52286E+2, 1.63896E-1
8.65488E+2, 1.58593E-1
8.78895E+2, 1.53776E-1
8.92509E+2, 1.48702E-1
9.06334E+2, 1.43903E-1
9.20374E+2, 1.38892E-1
9.34630E+2, 1.34285E-1
9.49108E+2, 1.30657E-1
9.63810E+2, 1.27245E-1
9.78740E+2, 1.22698E-1
9.93901E+2, 1.18311E-1
1.00930E+3, 1.13572E-1
1.02493E+3, 1.07752E-1
1.04081E+3, 1.00330E-1
1.05693E+3, 9.29731E-2
1.07330E+3, 8.60299E-2
1.08993E+3, 7.83393E-2
1.10681E+3, 7.18096E-2
1.12396E+3, 6.58689E-2
1.14137E+3, 6.03141E-2
1.15905E+3, 5.66989E-2
1.17700E+3, 5.45258E-2
1.19523E+3, 5.25641E-2
1.21375E+3, 5.06351E-2
1.23255E+3, 4.82501E-2
1.25164E+3, 4.57290E-2
1.27103E+3, 4.33497E-2
1.29072E+3, 4.12059E-2
1.31071E+3, 3.78963E-2
1.33101E+3, 3.37525E-2
1.35163E+3, 2.91181E-2
1.37257E+3, 2.33240E-2
1.39383E+3, 1.75660E-2
1.41542E+3, 1.34763E-2
1.43735E+3, 8.73350E-3
1.45961E+3, 5.06015E-3
1.48222E+3, 2.44895E-3
1.50518E+3, 0.00000E+0
##END=$$ End of the data block
