    5.000     1800
    5.015     1694
    5.030     1753
    5.045     1785
    5.060     1909
    5.075     1798
    5.090     1837
    5.105     1761
    5.120     1884
    5.135     1785
    5.150     1856
    5.165     1930
    5.180     1884
    5.195     1917
    5.210     1828
    5.225     1660
    5.240     1922
    5.255     1817
    5.270     1801
    5.285     1819
    5.300     1794
    5.315     1759
    5.330     1930
    5.345     1845
    5.360     1868
    5.375     1763
    5.390     1859
    5.405     1893
    5.420     1909
    5.435     2008
    5.450     1813
    5.465     1892
    5.480     1890
    5.495     2007
    5.510     1997
    5.525     2051
    5.540     2122
    5.555     2092
    5.570     2053
    5.585     2105
    5.600     2169
    5.615     2219
    5.630     2352
    5.645     2371
    5.660     2475
    5.675     2431
    5.690     2588
    5.705     2716
    5.720     3008
    5.735     2988
    5.750     2975
    5.765     3237
    5.780     3525
    5.795     3609
    5.810     3899
    5.825     4081
    5.840     4293
    5.855     4568
    5.870     5195
    5.885     5357
    5.900     5728
    5.915     6184
    5.930     6385
    5.945     7265
    5.960     7657
    5.975     8126
    5.990     8983
    6.005     9647
    6.020    10702
    6.035    11748
    6.050    12970
    6.065    13688
    6.080    15050
    6.095    16762
    6.110    18710
    6.125    18611
    6.140    21766
    6.155    24198
    6.170    26298
    6.185    28847
    6.200    32262
    6.215    35170
    6.230    38939
    6.245    42347
    6.260    48181
    6.275    52037
    6.290    58099
    6.305    64924
    6.320    75983
    6.335    87112
    6.350   104939
    6.365   128358
    6.380   169495
    6.395   184173
    6.410   189413
    6.425   168995
    6.440   152675
    6.455   130111
    6.470    87197
    6.485    55527
    6.500    33498
    6.515    17841
    6.530     9048
    6.545     3918
    6.560     2740
    6.575     2323
    6.590     2387
    6.605     2145
    6.620     2234
    6.635     2064
    6.650     2085
    6.665     1943
    6.680     2064
    6.695     1977
    6.710     2051
    6.725     1963
    6.740     2059
    6.755     1899
    6.770     2101
    6.785     2017
    6.800     1978
    6.815     1975
    6.830     1997
    6.845     2037
    6.860     2229
    6.875     2069
    6.890     2059
    6.905     2165
    6.920     2205
    6.935     2302
    6.950     2396
    6.965     2530
    6.980     2582
    6.995     2775
    7.010     2877
    7.025     2928
    7.040     3092
    7.055     3335
    7.070     3412
    7.085     3697
    7.100     4024
    7.115     4166
    7.130     4558
    7.145     4525
    7.160     5256
    7.175     5676
    7.190     6335
    7.205     6551
    7.220     7474
    7.235     8151
    7.250     9004
    7.265    10232
    7.280    11218
    7.295    12390
    7.310    14468
    7.325    15869
    7.340    18179
    7.355    23097
    7.370    28269
    7.385    33797
    7.400    36279
    7.415    33839
    7.430    31458
    7.445    24136
    7.460    17530
    7.475    11661
    7.490     7119
    7.505     4443
    7.520     2997
    7.535     2295
    7.550     1807
    7.565     1886
    7.580     1807
    7.595     1810
    7.610     1829
    7.625     1714
    7.640     1782
    7.655     1688
    7.670     1775
    7.685     1683
    7.700     1693
    7.715     1644
    7.730     1816
    7.745     1724
    7.760     1687
    7.775     1686
    7.790     1830
    7.805     1697
    7.820     1702
    7.835     1688
    7.850     1641
    7.865     1696
    7.880     1754
    7.895     1710
    7.910     1647
    7.925     1587
    7.940     1606
    7.955     1640
    7.970     1796
    7.985     1608
    8.000     1633
    8.015     1639
    8.030     1668
    8.045     1565
    8.060     1523
    8.075     1616
    8.090     1624
    8.105     1573
    8.120     1731
    8.135     1616
    8.150     1619
    8.165     1613
    8.180     1705
    8.195     1624
    8.210     1716
    8.225     1613
    8.240     1697
    8.255     1691
    8.270     1633
    8.285     1695
    8.300     1751
    8.315     1691
    8.330     1711
    8.345     1549
    8.360     1694
    8.375     1611
    8.390     1708
    8.405     1642
    8.420     1558
    8.435     1524
    8.450     1680
    8.465     1625
    8.480     1669
    8.495     1662
    8.510     1603
    8.525     1670
    8.540     1670
    8.555     1754
    8.570     1576
    8.585     1672
    8.600     1631
    8.615     1591
    8.630     1550
    8.645     1703
    8.660     1716
    8.675     1544
    8.690     1657
    8.705     1616
    8.720     1722
    8.735     1643
    8.750     1582
    8.765     1631
    8.780     1663
    8.795     1536
    8.810     1642
    8.825     1698
    8.840     1683
    8.855     1584
    8.870     1575
    8.885     1544
    8.900     1680
    8.915     1511
    8.930     1651
    8.945     1601
    8.960     1547
    8.975     1562
    8.990     1652
    9.005     1565
    9.020     1597
    9.035     1628
    9.050     1524
    9.065     1617
    9.080     1581
    9.095     1586
    9.110     1626
    9.125     1556
    9.140     1546
    9.155     1564
    9.170     1654
    9.185     1633
    9.200     1545
    9.215     1617
    9.230     1730
    9.245     1482
    9.260     1583
    9.275     1556
    9.290     1563
    9.305     1625
    9.320     1616
    9.335     1607
    9.350     1543
    9.365     1595
    9.380     1582
    9.395     1567
    9.410     1479
    9.425     1546
    9.440     1573
    9.455     1608
    9.470     1695
    9.485     1628
    9.500     1582
    9.515     1537
    9.530     1613
    9.545     1544
    9.560     1563
    9.575     1561
    9.590     1553
    9.605     1535
    9.620     1707
    9.635     1494
    9.650     1591
    9.665     1503
    9.680     1670
    9.695     1494
    9.710     1552
    9.725     1605
    9.740     1613
    9.755     1613
    9.770     1580
    9.785     1495
    9.800     1577
    9.815     1636
    9.830     1653
    9.845     1560
    9.860     1557
    9.875     1550
    9.890     1627
    9.905     1508
    9.920     1503
    9.935     1627
    9.950     1570
    9.965     1513
    9.980     1611
    9.995     1524
   10.010     1525
   10.025     1591
   10.040     1505
   10.055     1549
   10.070     1580
   10.085     1625
   10.100     1597
   10.115     1546
   10.130     1644
   10.145     1618
   10.160     1635
   10.175     1666
   10.190     1682
   10.205     1669
   10.220     1753
   10.235     1741
   10.250     1855
   10.265     1804
   10.280     1955
   10.295     1997
   10.310     2146
   10.325     2008
   10.340     2195
   10.355     2448
   10.370     2502
   10.385     2882
   10.400     2957
   10.415     3384
   10.430     3804
   10.445     4415
   10.460     5080
   10.475     5784
   10.490     5679
   10.505     5144
   10.520     4661
   10.535     3864
   10.550     3168
   10.565     2396
   10.580     1831
   10.595     1712
   10.610     1575
   10.625     1473
   10.640     1507
   10.655     1535
   10.670     1475
   10.685     1597
   10.700     1517
   10.715     1557
   10.730     1594
   10.745     1513
   10.760     1575
   10.775     1464
   10.790     1503
   10.805     1476
   10.820     1441
   10.835     1499
   10.850     1509
   10.865     1362
   10.880     1464
   10.895     1448
   10.910     1486
   10.925     1446
   10.940     1476
   10.955     1425
   10.970     1515
   10.985     1518
   11.000     1466
   11.015     1394
   11.030     1349
   11.045     1409
   11.060     1482
   11.075     1521
   11.090     1540
   11.105     1481
   11.120     1502
   11.135     1485
   11.150     1366
   11.165     1378
   11.180     1348
   11.195     1385
   11.210     1438
   11.225     1410
   11.240     1518
   11.255     1352
   11.270     1446
   11.285     1448
   11.300     1449
   11.315     1446
   11.330     1513
   11.345     1454
   11.360     1538
   11.375     1464
   11.390     1452
   11.405     1447
   11.420     1550
   11.435     1468
   11.450     1508
   11.465     1429
   11.480     1491
   11.495     1431
   11.510     1490
   11.525     1473
   11.540     1382
   11.555     1361
   11.570     1502
   11.585     1412
   11.600     1503
   11.615     1497
   11.630     1449
   11.645     1437
   11.660     1461
   11.675     1498
   11.690     1420
   11.705     1558
   11.720     1414
   11.735     1490
   11.750     1445
   11.765     1514
   11.780     1541
   11.795     1396
   11.810     1406
   11.825     1481
   11.840     1542
   11.855     1437
   11.870     1440
   11.885     1446
   11.900     1403
   11.915     1410
   11.930     1487
   11.945     1465
   11.960     1630
   11.975     1514
   11.990     1415
   12.005     1524
   12.020     1612
   12.035     1481
   12.050     1593
   12.065     1617
   12.080     1525
   12.095     1624
   12.110     1780
   12.125     1849
   12.140     1867
   12.155     2030
   12.170     1988
   12.185     2304
   12.200     2420
   12.215     2570
   12.230     2905
   12.245     3463
   12.260     4189
   12.275     5178
   12.290     5745
   12.305     5445
   12.320     5323
   12.335     5242
   12.350     4413
   12.365     3312
   12.380     2706
   12.395     2162
   12.410     1911
   12.425     1545
   12.440     1521
   12.455     1487
   12.470     1425
   12.485     1410
   12.500     1503
   12.515     1474
   12.530     1552
   12.545     1585
   12.560     1631
   12.575     1704
   12.590     1891
   12.605     1931
   12.620     1985
   12.635     2049
   12.650     2301
   12.665     2553
   12.680     2869
   12.695     3325
   12.710     3648
   12.725     4225
   12.740     5039
   12.755     5149
   12.770     6591
   12.785     7413
   12.800    10322
   12.815    12943
   12.830    16718
   12.845    17622
   12.860    17607
   12.875    16119
   12.890    14133
   12.905    10284
   12.920     8052
   12.935     5072
   12.950     3420
   12.965     2275
   12.980     1793
   12.995     1473
   13.010     1526
   13.025     1427
   13.040     1403
   13.055     1393
   13.070     1365
   13.085     1398
   13.100     1463
   13.115     1375
   13.130     1353
   13.145     1351
   13.160     1386
   13.175     1350
   13.190     1405
   13.205     1324
   13.220     1376
   13.235     1363
   13.250     1467
   13.265     1390
   13.280     1342
   13.295     1338
   13.310     1367
   13.325     1354
   13.340     1353
   13.355     1413
   13.370     1324
   13.385     1291
   13.400     1329
   13.415     1358
   13.430     1358
   13.445     1304
   13.460     1422
   13.475     1383
   13.490     1332
   13.505     1390
   13.520     1339
   13.535     1391
   13.550     1430
   13.565     1367
   13.580     1335
   13.595     1406
   13.610     1405
   13.625     1256
   13.640     1360
   13.655     1353
   13.670     1374
   13.685     1379
   13.700     1407
   13.715     1422
   13.730     1463
   13.745     1456
   13.760     1532
   13.775     1536
   13.790     1567
   13.805     1736
   13.820     1756
   13.835     1838
   13.850     2077
   13.865     2179
   13.880     2331
   13.895     2206
   13.910     2309
   13.925     1984
   13.940     1970
   13.955     1646
   13.970     1548
   13.985     1467
   14.000     1326
   14.015     1332
   14.030     1403
   14.045     1344
   14.060     1309
   14.075     1306
   14.090     1263
   14.105     1366
   14.120     1347
   14.135     1356
   14.150     1298
   14.165     1290
   14.180     1321
   14.195     1344
   14.210     1342
   14.225     1363
   14.240     1343
   14.255     1265
   14.270     1316
   14.285     1206
   14.300     1250
   14.315     1281
   14.330     1388
   14.345     1332
   14.360     1368
   14.375     1269
   14.390     1391
   14.405     1295
   14.420     1389
   14.435     1242
   14.450     1399
   14.465     1285
   14.480     1371
   14.495     1379
   14.510     1323
   14.525     1351
   14.540     1410
   14.555     1355
   14.570     1402
   14.585     1407
   14.600     1513
   14.615     1469
   14.630     1453
   14.645     1545
   14.660     1515
   14.675     1595
   14.690     1782
   14.705     1790
   14.720     2066
   14.735     2153
   14.750     2488
   14.765     2723
   14.780     3133
   14.795     3791
   14.810     4460
   14.825     5646
   14.840     6175
   14.855     6629
   14.870     6405
   14.885     6383
   14.900     5687
   14.915     4171
   14.930     3250
   14.945     2361
   14.960     1924
   14.975     1548
   14.990     1411
   15.005     1413
   15.020     1363
   15.035     1256
   15.050     1316
   15.065     1337
   15.080     1423
   15.095     1261
   15.110     1281
   15.125     1313
   15.140     1410
   15.155     1270
   15.170     1402
   15.185     1315
   15.200     1293
   15.215     1321
   15.230     1404
   15.245     1277
   15.260     1306
   15.275     1375
   15.290     1302
   15.305     1331
   15.320     1344
   15.335     1271
   15.350     1285
   15.365     1287
   15.380     1287
   15.395     1365
   15.410     1330
   15.425     1279
   15.440     1321
   15.455     1336
   15.470     1351
   15.485     1213
   15.500     1321
   15.515     1284
   15.530     1276
   15.545     1314
   15.560     1330
   15.575     1319
   15.590     1307
   15.605     1323
   15.620     1345
   15.635     1307
   15.650     1257
   15.665     1326
   15.680     1275
   15.695     1270
   15.710     1412
   15.725     1411
   15.740     1316
   15.755     1311
   15.770     1341
   15.785     1307
   15.800     1333
   15.815     1302
   15.830     1331
   15.845     1419
   15.860     1387
   15.875     1246
   15.890     1367
   15.905     1306
   15.920     1391
   15.935     1319
   15.950     1343
   15.965     1326
   15.980     1346
   15.995     1281
   16.010     1351
   16.025     1296
   16.040     1324
   16.055     1423
   16.070     1400
   16.085     1288
   16.100     1374
   16.115     1407
   16.130     1443
   16.145     1355
   16.160     1333
   16.175     1420
   16.190     1348
   16.205     1319
   16.220     1421
   16.235     1295
   16.250     1374
   16.265     1295
   16.280     1267
   16.295     1282
   16.310     1305
   16.325     1282
   16.340     1306
   16.355     1295
   16.370     1355
   16.385     1355
   16.400     1341
   16.415     1333
   16.430     1403
   16.445     1494
   16.460     1400
   16.475     1539
   16.490     1615
   16.505     1662
   16.520     1802
   16.535     1910
   16.550     2243
   16.565     2468
   16.580     3087
   16.595     3527
   16.610     3847
   16.625     3929
   16.640     3575
   16.655     3333
   16.670     2760
   16.685     2179
   16.700     1853
   16.715     1670
   16.730     1477
   16.745     1358
   16.760     1410
   16.775     1311
   16.790     1439
   16.805     1340
   16.820     1252
   16.835     1280
   16.850     1355
   16.865     1344
   16.880     1359
   16.895     1358
   16.910     1296
   16.925     1353
   16.940     1344
   16.955     1366
   16.970     1404
   16.985     1347
   17.000     1347
   17.015     1299
   17.030     1424
   17.045     1435
   17.060     1413
   17.075     1320
   17.090     1440
   17.105     1315
   17.120     1350
   17.135     1267
   17.150     1386
   17.165     1232
   17.180     1334
   17.195     1280
   17.210     1320
   17.225     1355
   17.240     1263
   17.255     1309
   17.270     1344
   17.285     1212
   17.300     1269
   17.315     1391
   17.330     1373
   17.345     1305
   17.360     1276
   17.375     1240
   17.390     1281
   17.405     1246
   17.420     1251
   17.435     1292
   17.450     1253
   17.465     1275
   17.480     1295
   17.495     1294
   17.510     1323
   17.525     1287
   17.540     1399
   17.555     1257
   17.570     1335
   17.585     1244
   17.600     1295
   17.615     1335
   17.630     1361
   17.645     1381
   17.660     1351
   17.675     1288
   17.690     1310
   17.705     1305
   17.720     1364
   17.735     1330
   17.750     1359
   17.765     1382
   17.780     1262
   17.795     1239
   17.810     1359
   17.825     1334
   17.840     1365
   17.855     1346
   17.870     1315
   17.885     1341
   17.900     1353
   17.915     1324
   17.930     1315
   17.945     1394
   17.960     1280
   17.975     1339
   17.990     1310
   18.005     1402
   18.020     1390
   18.035     1281
   18.050     1319
   18.065     1326
   18.080     1353
   18.095     1276
   18.110     1344
   18.125     1250
   18.140     1315
   18.155     1292
   18.170     1380
   18.185     1410
   18.200     1468
   18.215     1438
   18.230     1378
   18.245     1396
   18.260     1347
   18.275     1308
   18.290     1379
   18.305     1261
   18.320     1327
   18.335     1309
   18.350     1397
   18.365     1322
   18.380     1301
   18.395     1347
   18.410     1266
   18.425     1338
   18.440     1293
   18.455     1267
   18.470     1329
   18.485     1249
   18.500     1301
   18.515     1370
   18.530     1322
   18.545     1283
   18.560     1307
   18.575     1345
   18.590     1356
   18.605     1267
   18.620     1338
   18.635     1337
   18.650     1306
   18.665     1337
   18.680     1323
   18.695     1358
   18.710     1357
   18.725     1297
   18.740     1310
   18.755     1326
   18.770     1382
   18.785     1353
   18.800     1403
   18.815     1390
   18.830     1438
   18.845     1511
   18.860     1530
   18.875     1603
   18.890     1833
   18.905     1963
   18.920     2222
   18.935     2574
   18.950     2835
   18.965     2969
   18.980     3067
   18.995     2738
   19.010     2649
   19.025     2253
   19.040     2036
   19.055     1755
   19.070     1542
   19.085     1450
   19.100     1354
   19.115     1296
   19.130     1322
   19.145     1225
   19.160     1404
   19.175     1364
   19.190     1324
   19.205     1452
   19.220     1494
   19.235     1566
   19.250     1623
   19.265     1769
   19.280     1819
   19.295     2193
   19.310     2395
   19.325     2520
   19.340     2756
   19.355     2523
   19.370     2372
   19.385     2158
   19.400     1821
   19.415     1629
   19.430     1478
   19.445     1394
   19.460     1311
   19.475     1250
   19.490     1316
   19.505     1257
   19.520     1242
   19.535     1271
   19.550     1291
   19.565     1273
   19.580     1392
   19.595     1294
   19.610     1381
   19.625     1282
   19.640     1341
   19.655     1292
   19.670     1285
   19.685     1210
   19.700     1285
   19.715     1252
   19.730     1271
   19.745     1332
   19.760     1234
   19.775     1265
   19.790     1376
   19.805     1290
   19.820     1224
   19.835     1254
   19.850     1241
   19.865     1251
   19.880     1304
   19.895     1310
   19.910     1341
   19.925     1283
   19.940     1206
   19.955     1189
   19.970     1277
   19.985     1216
   20.000     1305
   20.015     1267
   20.030     1239
   20.045     1307
   20.060     1266
   20.075     1330
   20.090     1262
   20.105     1217
   20.120     1254
   20.135     1246
   20.150     1243
   20.165     1249
   20.180     1287
   20.195     1263
   20.210     1260
   20.225     1267
   20.240     1258
   20.255     1175
   20.270     1240
   20.285     1187
   20.300     1243
   20.315     1244
   20.330     1235
   20.345     1227
   20.360     1214
   20.375     1239
   20.390     1257
   20.405     1169
   20.420     1184
   20.435     1317
   20.450     1303
   20.465     1235
   20.480     1205
   20.495     1237
   20.510     1293
   20.525     1179
   20.540     1145
   20.555     1141
   20.570     1298
   20.585     1212
   20.600     1294
   20.615     1213
   20.630     1232
   20.645     1250
   20.660     1265
   20.675     1214
   20.690     1339
   20.705     1162
   20.720     1240
   20.735     1198
   20.750     1230
   20.765     1147
   20.780     1283
   20.795     1231
   20.810     1242
   20.825     1215
   20.840     1215
   20.855     1266
   20.870     1277
   20.885     1197
   20.900     1219
   20.915     1207
   20.930     1284
   20.945     1207
   20.960     1335
   20.975     1340
   20.990     1425
   21.005     1478
   21.020     1625
   21.035     1795
   21.050     1807
   21.065     1907
   21.080     1907
   21.095     1851
   21.110     1840
   21.125     1754
   21.140     1594
   21.155     1385
   21.170     1326
   21.185     1243
   21.200     1246
   21.215     1208
   21.230     1226
   21.245     1185
   21.260     1221
   21.275     1116
   21.290     1193
   21.305     1208
   21.320     1297
   21.335     1232
   21.350     1129
   21.365     1258
   21.380     1268
   21.395     1141
   21.410     1240
   21.425     1182
   21.440     1174
   21.455     1159
   21.470     1267
   21.485     1120
   21.500     1194
   21.515     1132
   21.530     1199
   21.545     1205
   21.560     1172
   21.575     1110
   21.590     1118
   21.605     1140
   21.620     1150
   21.635     1149
   21.650     1145
   21.665     1181
   21.680     1182
   21.695     1216
   21.710     1181
   21.725     1142
   21.740     1154
   21.755     1162
   21.770     1196
   21.785     1241
   21.800     1199
   21.815     1150
   21.830     1118
   21.845     1147
   21.860     1292
   21.875     1229
   21.890     1267
   21.905     1281
   21.920     1420
   21.935     1505
   21.950     1762
   21.965     2028
   21.980     2588
   21.995     2960
   22.010     3751
   22.025     4442
   22.040     4915
   22.055     5130
   22.070     4743
   22.085     4430
   22.100     3721
   22.115     2833
   22.130     2333
   22.145     1738
   22.160     1542
   22.175     1422
   22.190     1479
   22.205     1569
   22.220     1703
   22.235     1786
   22.250     2225
   22.265     2434
   22.280     3446
   22.295     4425
   22.310     6079
   22.325     7775
   22.340    10283
   22.355    11261
   22.370    12394
   22.385    11024
   22.400     9648
   22.415     8255
   22.430     5963
   22.445     4243
   22.460     2904
   22.475     1882
   22.490     1484
   22.505     1273
   22.520     1149
   22.535     1172
   22.550     1114
   22.565     1093
   22.580     1106
   22.595     1066
   22.610     1156
   22.625     1093
   22.640     1041
   22.655     1107
   22.670     1036
   22.685     1125
   22.700     1130
   22.715     1122
   22.730     1131
   22.745     1020
   22.760     1077
   22.775     1045
   22.790     1056
   22.805     1031
   22.820     1117
   22.835     1137
   22.850     1089
   22.865     1127
   22.880     1095
   22.895     1164
   22.910     1145
   22.925     1134
   22.940     1132
   22.955     1240
   22.970     1208
   22.985     1296
   23.000     1220
   23.015     1223
   23.030     1324
   23.045     1161
   23.060     1160
   23.075     1156
   23.090     1092
   23.105      982
   23.120     1073
   23.135     1054
   23.150      979
   23.165     1153
   23.180     1043
   23.195     1019
   23.210     1019
   23.225     1036
   23.240     1013
   23.255     1032
   23.270     1053
   23.285     1021
   23.300     1055
   23.315      987
   23.330     1107
   23.345     1008
   23.360      980
   23.375      939
   23.390      995
   23.405      979
   23.420     1020
   23.435      963
   23.450      961
   23.465      995
   23.480     1015
   23.495     1038
   23.510     1004
   23.525     1020
   23.540     1156
   23.555     1197
   23.570     1263
   23.585     1208
   23.600     1248
   23.615     1204
   23.630     1202
   23.645     1052
   23.660     1003
   23.675     1086
   23.690     1076
   23.705      999
   23.720     1013
   23.735      930
   23.750     1015
   23.765     1023
   23.780     1092
   23.795     1104
   23.810     1186
   23.825     1158
   23.840     1341
   23.855     1418
   23.870     1587
   23.885     1680
   23.900     1722
   23.915     1667
   23.930     1515
   23.945     1491
   23.960     1340
   23.975     1170
   23.990     1160
   24.005     1005
   24.020      940
   24.035      933
   24.050     1051
   24.065      939
   24.080     1069
   24.095      985
   24.110      955
   24.125      992
   24.140      997
   24.155     1024
   24.170      967
   24.185     1111
   24.200     1029
   24.215      984
   24.230     1014
   24.245     1109
   24.260     1033
   24.275      991
   24.290      962
   24.305      986
   24.320     1008
   24.335      956
   24.350      982
   24.365     1001
   24.380     1092
   24.395     1087
   24.410     1263
   24.425     1445
   24.440     1776
   24.455     1705
   24.470     1843
   24.485     1867
   24.500     1868
   24.515     1684
   24.530     1562
   24.545     1381
   24.560     1140
   24.575     1103
   24.590     1005
   24.605      984
   24.620      916
   24.635      876
   24.650      924
   24.665      925
   24.680      908
   24.695      945
   24.710     1012
   24.725      997
   24.740     1046
   24.755     1045
   24.770     1097
   24.785     1005
   24.800      976
   24.815     1055
   24.830     1100
   24.845      904
   24.860      922
   24.875      954
   24.890      852
   24.905      841
   24.920      862
   24.935      911
   24.950      882
   24.965      856
   24.980      849
   24.995      855
   25.010      810
   25.025      863
   25.040      836
   25.055      840
   25.070      851
   25.085      913
   25.100      849
   25.115      849
   25.130      943
   25.145      917
   25.160      925
   25.175      883
   25.190      846
   25.205      935
   25.220      947
   25.235      890
   25.250      915
   25.265      848
   25.280      926
   25.295      976
   25.310      964
   25.325      992
   25.340      960
   25.355      897
   25.370      921
   25.385      859
   25.400      982
   25.415      916
   25.430      858
   25.445      862
   25.460      863
   25.475      811
   25.490      855
   25.505      762
   25.520      873
   25.535      894
   25.550      839
   25.565      816
   25.580      842
   25.595      826
   25.610      775
   25.625      822
   25.640      822
   25.655      778
   25.670      788
   25.685      778
   25.700      845
   25.715      857
   25.730      881
   25.745      928
   25.760      880
   25.775      989
   25.790      967
   25.805     1066
   25.820     1311
   25.835     1559
   25.850     1830
   25.865     1741
   25.880     2060
   25.895     2089
   25.910     1960
   25.925     1781
   25.940     1466
   25.955     1318
   25.970     1076
   25.985      941
   26.000      878
   26.015      870
   26.030      829
   26.045      805
   26.060      787
   26.075      827
   26.090      808
   26.105      811
   26.120      794
   26.135      794
   26.150      803
   26.165      832
   26.180      776
   26.195      805
   26.210      827
   26.225      786
   26.240      814
   26.255      825
   26.270      793
   26.285      837
   26.300      819
   26.315      880
   26.330      946
   26.345     1017
   26.360     1118
   26.375     1126
   26.390     1440
   26.405     1517
   26.420     1718
   26.435     1718
   26.450     1619
   26.465     1452
   26.480     1346
   26.495     1160
   26.510     1159
   26.525      940
   26.540     1113
   26.555     1138
   26.570     1232
   26.585     1438
   26.600     1873
   26.615     2433
   26.630     3403
   26.645     4535
   26.660     6254
   26.675     7769
   26.690     9163
   26.705     8557
   26.720     7967
   26.735     6405
   26.750     5287
   26.765     3602
   26.780     2396
   26.795     1642
   26.810     1230
   26.825     1003
   26.840      971
   26.855      858
   26.870      938
   26.885      921
   26.900     1102
   26.915     1129
   26.930     1341
   26.945     1400
   26.960     1491
   26.975     1531
   26.990     1480
   27.005     1329
   27.020     1286
   27.035     1071
   27.050     1024
   27.065      884
   27.080      838
   27.095      804
   27.110      843
   27.125      764
   27.140      740
   27.155      766
   27.170      774
   27.185      806
   27.200      879
   27.215      897
   27.230      862
   27.245      922
   27.260      858
   27.275      800
   27.290      820
   27.305      819
   27.320      773
   27.335      755
   27.350      724
   27.365      777
   27.380      761
   27.395      741
   27.410      685
   27.425      665
   27.440      751
   27.455      678
   27.470      747
   27.485      705
   27.500      704
   27.515      677
   27.530      726
   27.545      760
   27.560      726
   27.575      704
   27.590      673
   27.605      738
   27.620      759
   27.635      665
   27.650      704
   27.665      711
   27.680      645
   27.695      716
   27.710      725
   27.725      710
   27.740      692
   27.755      705
   27.770      662
   27.785      724
   27.800      701
   27.815      705
   27.830      713
   27.845      770
   27.860      802
   27.875      838
   27.890      931
   27.905     1052
   27.920     1299
   27.935     1722
   27.950     2160
   27.965     2387
   27.980     2944
   27.995     3332
   28.010     3266
   28.025     3268
   28.040     2884
   28.055     2437
   28.070     1892
   28.085     1456
   28.100     1157
   28.115      891
   28.130      782
   28.145      711
   28.160      619
   28.175      702
   28.190      690
   28.205      709
   28.220      748
   28.235      658
   28.250      691
   28.265      698
   28.280      682
   28.295      726
   28.310      667
   28.325      661
   28.340      719
   28.355      606
   28.370      678
   28.385      647
   28.400      675
   28.415      732
   28.430      697
   28.445      727
   28.460      684
   28.475      792
   28.490      751
   28.505      753
   28.520      781
   28.535      744
   28.550      754
   28.565      742
   28.580      766
   28.595      711
   28.610      752
   28.625      811
   28.640      828
   28.655     1079
   28.670     1303
   28.685     1632
   28.700     2264
   28.715     2954
   28.730     3570
   28.745     3946
   28.760     4059
   28.775     3951
   28.790     3606
   28.805     2858
   28.820     2279
   28.835     1714
   28.850     1434
   28.865      953
   28.880      849
   28.895      734
   28.910      630
   28.925      673
   28.940      684
   28.955      613
   28.970      683
   28.985      569
   29.000      640
   29.015      665
   29.030      658
   29.045      623
   29.060      630
   29.075      652
   29.090      659
   29.105      609
   29.120      580
   29.135      666
   29.150      733
   29.165      682
   29.180      693
   29.195      730
   29.210      761
   29.225      780
   29.240      891
   29.255      941
   29.270      892
   29.285      813
   29.300      767
   29.315      760
   29.330      708
   29.345      647
   29.360      686
   29.375      654
   29.390      622
   29.405      707
   29.420      742
   29.435      806
   29.450      861
   29.465      950
   29.480      973
   29.495      921
   29.510      918
   29.525      888
   29.540      929
   29.555      839
   29.570      758
   29.585      648
   29.600      628
   29.615      608
   29.630      637
   29.645      577
   29.660      608
   29.675      641
   29.690      591
   29.705      602
   29.720      654
   29.735      599
   29.750      633
   29.765      549
   29.780      633
   29.795      659
   29.810      638
   29.825      657
   29.840      695
   29.855      808
   29.870      871
   29.885      964
   29.900     1199
   29.915     1704
   29.930     2254
   29.945     2669
   29.960     2972
   29.975     3068
   29.990     3404
   30.005     3257
   30.020     3059
   30.035     2555
   30.050     2240
   30.065     1576
   30.080     1285
   30.095      905
   30.110      767
   30.125      658
   30.140      664
   30.155      611
   30.170      628
   30.185      563
   30.200      652
   30.215      593
   30.230      658
   30.245      593
   30.260      587
   30.275      541
   30.290      554
   30.305      564
   30.320      605
   30.335      610
   30.350      599
   30.365      620
   30.380      591
   30.395      593
   30.410      603
   30.425      628
   30.440      613
   30.455      596
   30.470      649
   30.485      654
   30.500      659
   30.515      589
   30.530      594
   30.545      571
   30.560      600
   30.575      553
   30.590      614
   30.605      625
   30.620      645
   30.635      536
   30.650      607
   30.665      716
   30.680      747
   30.695      710
   30.710      699
   30.725      699
   30.740      770
   30.755      638
   30.770      625
   30.785      633
   30.800      678
   30.815      738
   30.830      956
   30.845     1157
   30.860     1606
   30.875     1965
   30.890     2326
   30.905     2781
   30.920     2948
   30.935     3001
   30.950     2890
   30.965     2680
   30.980     2192
   30.995     1861
   31.010     1397
   31.025     1061
   31.040      920
   31.055      846
   31.070      799
   31.085      768
   31.100      893
   31.115     1042
   31.130     1174
   31.145     1235
   31.160     1297
   31.175     1300
   31.190     1206
   31.205     1065
   31.220      943
   31.235      814
   31.250      725
   31.265      638
   31.280      575
   31.295      532
   31.310      574
   31.325      574
   31.340      600
   31.355      518
   31.370      550
   31.385      574
   31.400      535
   31.415      560
   31.430      564
   31.445      546
   31.460      599
   31.475      516
   31.490      555
   31.505      530
   31.520      522
   31.535      504
   31.550      541
   31.565      586
   31.580      523
   31.595      550
   31.610      526
   31.625      495
   31.640      536
   31.655      552
   31.670      546
   31.685      575
   31.700      599
   31.715      607
   31.730      694
   31.745      684
   31.760      728
   31.775     1008
   31.790     1213
   31.805     1405
   31.820     1599
   31.835     1780
   31.850     1790
   31.865     1713
   31.880     1562
   31.895     1337
   31.910     1179
   31.925      935
   31.940      689
   31.955      648
   31.970      584
   31.985      566
   32.000      552
   32.015      526
   32.030      494
   32.045      518
   32.060      583
   32.075      505
   32.090      536
   32.105      510
   32.120      577
   32.135      505
   32.150      511
   32.165      536
   32.180      528
   32.195      553
   32.210      526
   32.225      534
   32.240      539
   32.255      603
   32.270      624
   32.285      585
   32.300      595
   32.315      619
   32.330      601
   32.345      582
   32.360      570
   32.375      591
   32.390      678
   32.405      672
   32.420      727
   32.435      901
   32.450     1250
   32.465     1564
   32.480     2051
   32.495     2341
   32.510     2460
   32.525     2595
   32.540     2452
   32.555     2285
   32.570     1908
   32.585     1557
   32.600     1246
   32.615      914
   32.630      831
   32.645      785
   32.660      853
   32.675      996
   32.690     1288
   32.705     1463
   32.720     1710
   32.735     1768
   32.750     2031
   32.765     1744
   32.780     1643
   32.795     1295
   32.810     1068
   32.825      888
   32.840      735
   32.855      593
   32.870      555
   32.885      582
   32.900      645
   32.915      678
   32.930      733
   32.945      737
   32.960      681
   32.975      746
   32.990      717
   33.005      649
   33.020      604
   33.035      579
   33.050      604
   33.065      543
   33.080      560
   33.095      547
   33.110      531
   33.125      545
   33.140      593
   33.155      538
   33.170      601
   33.185      569
   33.200      600
   33.215      587
   33.230      588
   33.245      572
   33.260      573
   33.275      511
   33.290      543
   33.305      514
   33.320      492
   33.335      525
   33.350      494
   33.365      472
   33.380      487
   33.395      494
   33.410      484
   33.425      453
   33.440      481
   33.455      456
   33.470      484
   33.485      455
   33.500      537
   33.515      515
   33.530      472
   33.545      504
   33.560      500
   33.575      487
   33.590      475
   33.605      505
   33.620      502
   33.635      476
   33.650      479
   33.665      470
   33.680      529
   33.695      489
   33.710      456
   33.725      493
   33.740      502
   33.755      454
   33.770      476
   33.785      514
   33.800      564
   33.815      481
   33.830      496
   33.845      491
   33.860      532
   33.875      482
   33.890      485
   33.905      486
   33.920      468
   33.935      479
   33.950      480
   33.965      485
   33.980      568
   33.995      561
   34.010      579
   34.025      610
   34.040      618
   34.055      638
   34.070      661
   34.085      629
   34.100      668
   34.115      668
   34.130      679
   34.145      773
   34.160      890
   34.175     1262
   34.190     1778
   34.205     2159
   34.220     2846
   34.235     3656
   34.250     4203
   34.265     4279
   34.280     4439
   34.295     3999
   34.310     3486
   34.325     2839
   34.340     2123
   34.355     1508
   34.370     1065
   34.385      838
   34.400      659
   34.415      555
   34.430      552
   34.445      530
   34.460      612
   34.475      514
   34.490      560
   34.505      558
   34.520      571
   34.535      534
   34.550      501
   34.565      538
   34.580      503
   34.595      436
   34.610      450
   34.625      451
   34.640      454
   34.655      495
   34.670      473
   34.685      432
   34.700      469
   34.715      473
   34.730      497
   34.745      451
   34.760      502
   34.775      497
   34.790      535
   34.805      476
   34.820      511
   34.835      545
   34.850      572
   34.865      552
   34.880      551
   34.895      603
   34.910      615
   34.925      579
   34.940      530
   34.955      493
   34.970      492
   34.985      475
   35.000      458
   35.015      459
   35.030      471
   35.045      457
   35.060      467
   35.075      474
   35.090      449
   35.105      456
   35.120      513
   35.135      492
   35.150      531
   35.165      489
   35.180      579
   35.195      591
   35.210      823
   35.225      988
   35.240     1351
   35.255     1848
   35.270     2447
   35.285     2662
   35.300     3240
   35.315     3414
   35.330     3336
   35.345     3052
   35.360     2455
   35.375     2062
   35.390     1637
   35.405     1050
   35.420      822
   35.435      720
   35.450      603
   35.465      577
   35.480      599
   35.495      554
   35.510      593
   35.525      570
   35.540      572
   35.555      549
   35.570      567
   35.585      540
   35.600      531
   35.615      534
   35.630      531
   35.645      558
   35.660      596
   35.675      667
   35.690      687
   35.705      776
   35.720      699
   35.735      717
   35.750      771
   35.765      657
   35.780      649
   35.795      555
   35.810      541
   35.825      497
   35.840      568
   35.855      494
   35.870      561
   35.885      579
   35.900      680
   35.915      633
   35.930      679
   35.945      696
   35.960      669
   35.975      615
   35.990      597
   36.005      548
   36.020      543
   36.035      480
   36.050      450
   36.065      454
   36.080      476
   36.095      402
   36.110      445
   36.125      430
   36.140      409
   36.155      422
   36.170      455
   36.185      434
   36.200      497
   36.215      434
   36.230      421
   36.245      433
   36.260      465
   36.275      491
   36.290      513
   36.305      534
   36.320      537
   36.335      540
   36.350      585
   36.365      577
   36.380      548
   36.395      536
   36.410      526
   36.425      518
   36.440      538
   36.455      518
   36.470      657
   36.485      672
   36.500      756
   36.515      759
   36.530      914
   36.545      864
   36.560      932
   36.575      783
   36.590      746
   36.605      709
   36.620      645
   36.635      585
   36.650      508
   36.665      511
   36.680      430
   36.695      448
   36.710      423
   36.725      482
   36.740      469
   36.755      431
   36.770      418
   36.785      410
   36.800      436
   36.815      417
   36.830      477
   36.845      489
   36.860      519
   36.875      551
   36.890      663
   36.905      764
   36.920      857
   36.935      865
   36.950      818
   36.965      810
   36.980      785
   36.995      680
   37.010      690
   37.025      567
   37.040      496
   37.055      452
   37.070      446
   37.085      443
   37.100      463
   37.115      392
   37.130      415
   37.145      481
   37.160      430
   37.175      442
   37.190      409
   37.205      412
   37.220      462
   37.235      462
   37.250      435
   37.265      444
   37.280      422
   37.295      453
   37.310      484
   37.325      468
   37.340      496
   37.355      525
   37.370      493
   37.385      508
   37.400      552
   37.415      653
   37.430      687
   37.445      980
   37.460     1322
   37.475     1682
   37.490     2213
   37.505     2538
   37.520     2861
   37.535     3108
   37.550     3094
   37.565     2996
   37.580     2529
   37.595     2032
   37.610     1760
   37.625     1373
   37.640     1125
   37.655      967
   37.670      958
   37.685      999
   37.700     1192
   37.715     1191
   37.730     1275
   37.745     1249
   37.760     1226
   37.775     1097
   37.790      914
   37.805      810
   37.820      725
   37.835      616
   37.850      534
   37.865      530
   37.880      529
   37.895      522
   37.910      530
   37.925      552
   37.940      592
   37.955      575
   37.970      541
   37.985      537
   38.000      517
   38.015      444
   38.030      463
   38.045      437
   38.060      439
   38.075      380
   38.090      426
   38.105      458
   38.120      450
   38.135      433
   38.150      444
   38.165      450
   38.180      424
   38.195      434
   38.210      434
   38.225      465
   38.240      440
   38.255      425
   38.270      408
   38.285      397
   38.300      412
   38.315      430
   38.330      439
   38.345      408
   38.360      423
   38.375      463
   38.390      434
   38.405      426
   38.420      515
   38.435      505
   38.450      581
   38.465      603
   38.480      695
   38.495      671
   38.510      724
   38.525      689
   38.540      658
   38.555      656
   38.570      581
   38.585      567
   38.600      522
   38.615      520
   38.630      599
   38.645      542
   38.660      553
   38.675      632
   38.690      663
   38.705      618
   38.720      688
   38.735      653
   38.750      559
   38.765      593
   38.780      460
   38.795      469
   38.810      487
   38.825      509
   38.840      519
   38.855      554
   38.870      580
   38.885      601
   38.900      615
   38.915      569
   38.930      602
   38.945      549
   38.960      520
   38.975      477
   38.990      519
   39.005      536
   39.020      659
   39.035      692
   39.050      731
   39.065      819
   39.080      831
   39.095      869
   39.110      867
   39.125      771
   39.140      756
   39.155      688
   39.170      900
   39.185      902
   39.200     1159
   39.215     1514
   39.230     1928
   39.245     2065
   39.260     2172
   39.275     2457
   39.290     2452
   39.305     1997
   39.320     2098
   39.335     1628
   39.350     1344
   39.365     1043
   39.380      896
   39.395      614
   39.410      557
   39.425      497
   39.440      464
   39.455      453
   39.470      506
   39.485      440
   39.500      506
   39.515      431
   39.530      469
   39.545      472
   39.560      455
   39.575      535
   39.590      589
   39.605      590
   39.620      622
   39.635      652
   39.650      729
   39.665      668
   39.680      666
   39.695      626
   39.710      580
   39.725      590
   39.740      501
   39.755      521
   39.770      453
   39.785      441
   39.800      443
   39.815      418
   39.830      428
   39.845      424
   39.860      423
   39.875      448
   39.890      406
   39.905      417
   39.920      401
   39.935      379
   39.950      415
   39.965      459
   39.980      391
   39.995      403
   40.010      406
   40.025      422
   40.040      430
   40.055      410
   40.070      413
   40.085      405
   40.100      448
   40.115      386
   40.130      397
   40.145      416
   40.160      426
   40.175      405
   40.190      377
   40.205      406
   40.220      413
   40.235      473
   40.250      411
   40.265      452
   40.280      427
   40.295      366
   40.310      420
   40.325      424
   40.340      447
   40.355      457
   40.370      464
   40.385      525
   40.400      486
   40.415      465
   40.430      488
   40.445      418
   40.460      447
   40.475      465
   40.490      432
   40.505      380
   40.520      466
   40.535      436
   40.550      448
   40.565      447
   40.580      426
   40.595      445
   40.610      423
   40.625      450
   40.640      520
   40.655      563
   40.670      685
   40.685      824
   40.700     1020
   40.715     1156
   40.730     1403
   40.745     1545
   40.760     1671
   40.775     1670
   40.790     1614
   40.805     1452
   40.820     1373
   40.835     1017
   40.850      937
   40.865      722
   40.880      717
   40.895      610
   40.910      625
   40.925      638
   40.940      657
   40.955      622
   40.970      676
   40.985      569
   41.000      583
   41.015      569
   41.030      523
   41.045      489
   41.060      425
   41.075      463
   41.090      425
   41.105      412
   41.120      432
   41.135      454
   41.150      447
   41.165      429
   41.180      455
   41.195      419
   41.210      375
   41.225      410
   41.240      401
   41.255      405
   41.270      445
   41.285      394
   41.300      427
   41.315      374
   41.330      398
   41.345      417
   41.360      416
   41.375      421
   41.390      421
   41.405      410
   41.420      464
   41.435      457
   41.450      455
   41.465      408
   41.480      430
   41.495      396
   41.510      419
   41.525      440
   41.540      458
   41.555      438
   41.570      438
   41.585      438
   41.600      460
   41.615      487
   41.630      495
   41.645      470
   41.660      453
   41.675      524
   41.690      496
   41.705      544
   41.720      491
   41.735      477
   41.750      542
   41.765      602
   41.780      611
   41.795      743
   41.810      832
   41.825      828
   41.840      912
   41.855     1018
   41.870      919
   41.885      961
   41.900      873
   41.915      895
   41.930      964
   41.945     1270
   41.960     1499
   41.975     1809
   41.990     2416
   42.005     2574
   42.020     3159
   42.035     3084
   42.050     3001
   42.065     2719
   42.080     2284
   42.095     1790
   42.110     1496
   42.125     1057
   42.140      794
   42.155      620
   42.170      516
   42.185      436
   42.200      431
   42.215      448
   42.230      441
   42.245      388
   42.260      441
   42.275      416
   42.290      420
   42.305      412
   42.320      441
   42.335      504
   42.350      526
   42.365      483
   42.380      446
   42.395      447
   42.410      510
   42.425      488
   42.440      485
   42.455      500
   42.470      565
   42.485      527
   42.500      567
   42.515      587
   42.530      669
   42.545      636
   42.560      724
   42.575      716
   42.590      758
   42.605      791
   42.620      677
   42.635      660
   42.650      610
   42.665      519
   42.680      481
   42.695      489
   42.710      417
   42.725      449
   42.740      434
   42.755      392
   42.770      463
   42.785      491
   42.800      534
   42.815      593
   42.830      683
   42.845      864
   42.860     1057
   42.875     1266
   42.890     1318
   42.905     1491
   42.920     1575
   42.935     1613
   42.950     1625
   42.965     1539
   42.980     1316
   42.995     1091
   43.010      956
   43.025      829
   43.040      710
   43.055      681
   43.070      690
   43.085      630
   43.100      680
   43.115      678
   43.130      660
   43.145      648
   43.160      659
   43.175      534
   43.190      546
   43.205      443
   43.220      538
   43.235      471
   43.250      513
   43.265      513
   43.280      499
   43.295      519
   43.310      635
   43.325      701
   43.340      908
   43.355     1226
   43.370     1552
   43.385     2214
   43.400     2645
   43.415     3166
   43.430     3580
   43.445     3798
   43.460     3953
   43.475     3663
   43.490     3349
   43.505     2773
   43.520     2420
   43.535     2051
   43.550     1830
   43.565     1518
   43.580     1660
   43.595     1728
   43.610     1750
   43.625     1767
   43.640     1782
   43.655     1611
   43.670     1423
   43.685     1200
   43.700     1010
   43.715      815
   43.730      673
   43.745      613
   43.760      539
   43.775      553
   43.790      576
   43.805      563
   43.820      516
   43.835      491
   43.850      467
   43.865      448
   43.880      478
   43.895      521
   43.910      497
   43.925      502
   43.940      509
   43.955      507
   43.970      478
   43.985      476
   44.000      535
   44.015      437
   44.030      434
   44.045      415
   44.060      445
   44.075      415
   44.090      457
   44.105      386
   44.120      391
   44.135      420
   44.150      420
   44.165      437
   44.180      495
   44.195      561
   44.210      726
   44.225      935
   44.240     1163
   44.255     1577
   44.270     1715
   44.285     2084
   44.300     2238
   44.315     2311
   44.330     2309
   44.345     2066
   44.360     1757
   44.375     1484
   44.390     1238
   44.405      990
   44.420      905
   44.435      737
   44.450      763
   44.465      749
   44.480      771
   44.495      742
   44.510      711
   44.525      632
   44.540      684
   44.555      565
   44.570      572
   44.585      557
   44.600      609
   44.615      575
   44.630      593
   44.645      632
   44.660      619
   44.675      629
   44.690      619
   44.705      589
   44.720      637
   44.735      672
   44.750      762
   44.765      774
   44.780      884
   44.795      975
   44.810     1076
   44.825     1022
   44.840     1071
   44.855     1079
   44.870      904
   44.885      841
   44.900      830
   44.915      853
   44.930      936
   44.945      955
   44.960     1048
   44.975     1070
   44.990     1113
   45.005     1119
   45.020     1044
   45.035      951
   45.050      831
   45.065      740
   45.080      635
   45.095      492
   45.110      502
   45.125      440
   45.140      455
   45.155      472
   45.170      488
   45.185      458
   45.200      446
   45.215      419
   45.230      475
   45.245      401
   45.260      431
   45.275      434
   45.290      447
   45.305      465
   45.320      462
   45.335      466
   45.350      422
   45.365      422
   45.380      412
   45.395      433
   45.410      399
   45.425      415
   45.440      404
   45.455      333
   45.470      410
   45.485      345
   45.500      352
   45.515      385
   45.530      422
   45.545      429
