##TITLE=Spectrum
##JCAMP-DX=5.00 $$ chemotion-converter-app (1.5.0)
##DATA TYPE=THERMOGRAVIMETRIC ANALYSIS
##DATA CLASS=XYPOINTS
##ORIGIN=
##OWNER=
##XUNITS=DEGREES CELSIUS
##YUNITS=W/g
##SAMPLE=SB
##AMOUNT=6,4
##DATE=31.03.2022
##TIME=12:47:59 (UTC+2)
##REFERENCE=-----
##REFERENCE_MASS=0.0
##TEMP_CAL=14-03-2022
##SENSFILE=14-03-2022
##SEGMENTS=4/4
##BRAND=NETZSCH
##INSTRUMENT=DSC 214
##CRUCIBLE=Concavus Al, pierced lid
##ATMOSPHERE=NITROGEN,250,0 ml/min
##RANGE=5.0
##TEMPERATURE=-80°C/10,0(K/min)/200°C
##OPERATOR=SB
##FIRSTX=-63.00000
##LASTX= 77.00000
##MINX=-63.0
##MAXX=77.0
##MINY=0.11677
##MAXY=0.25175
##NPOINTS=141
##FIRSTY=0.11677
##XUNITS=DEGREES CELSIUS
##YUNITS=W/g
##XYPOINTS=(XY..XY)
-63.00000, 0.11677
-62.00000, 0.11735
-61.00000, 0.11846
-60.00000, 0.11883
-59.00000, 0.12039
-58.00000, 0.12119
-57.00000, 0.12283
-56.00000, 0.12307
-55.00000, 0.12475
-54.00000, 0.12572
-53.00000, 0.12679
-52.00000, 0.12734
-51.00000, 0.12816
-50.00000, 0.12912
-49.00000, 0.13037
-48.00000, 0.13143
-47.00000, 0.13223
-46.00000, 0.13300
-45.00000, 0.13489
-44.00000, 0.13631
-43.00000, 0.13762
-42.00000, 0.13922
-41.00000, 0.14115
-40.00000, 0.14282
-39.00000, 0.14512
-38.00000, 0.14791
-37.00000, 0.15185
-36.00000, 0.15621
-35.00000, 0.16347
-34.00000, 0.17107
-33.00000, 0.18100
-32.00000, 0.19060
-31.00000, 0.19701
-30.00000, 0.19835
-29.00000, 0.19769
-28.00000, 0.19625
-27.00000, 0.19572
-26.00000, 0.19538
-25.00000, 0.19507
-24.00000, 0.19475
-23.00000, 0.19590
-22.00000, 0.19594
-21.00000, 0.19629
-20.00000, 0.19673
-19.00000, 0.19782
-18.00000, 0.19831
-17.00000, 0.19894
-16.00000, 0.19921
-15.00000, 0.20047
-14.00000, 0.20127
-13.00000, 0.20227
-12.00000, 0.20231
-11.00000, 0.20364
-10.00000, 0.20473
 -9.00000, 0.20614
 -8.00000, 0.20717
 -7.00000, 0.20811
 -6.00000, 0.20812
 -5.00000, 0.20888
 -4.00000, 0.20940
 -3.00000, 0.20991
 -2.00000, 0.21070
 -1.00000, 0.21024
  0.00000, 0.21301
  1.00000, 0.21343
  2.00000, 0.21476
  3.00000, 0.21539
  4.00000, 0.21575
  5.00000, 0.21741
  6.00000, 0.21804
  7.00000, 0.21857
  8.00000, 0.21968
  9.00000, 0.22042
 10.00000, 0.22132
 11.00000, 0.22190
 12.00000, 0.22323
 13.00000, 0.22292
 14.00000, 0.22380
 15.00000, 0.22403
 16.00000, 0.22516
 17.00000, 0.22501
 18.00000, 0.22537
 19.00000, 0.22724
 20.00000, 0.22789
 21.00000, 0.22903
 22.00000, 0.22874
 23.00000, 0.22968
 24.00000, 0.23052
 25.00000, 0.23125
 26.00000, 0.23222
 27.00000, 0.23264
 28.00000, 0.23352
 29.00000, 0.23290
 30.00000, 0.23468
 31.00000, 0.23594
 32.00000, 0.23694
 33.00000, 0.23795
 34.00000, 0.23884
 35.00000, 0.23874
 36.00000, 0.23880
 37.00000, 0.23787
 38.00000, 0.23632
 39.00000, 0.23466
 40.00000, 0.23410
 41.00000, 0.23385
 42.00000, 0.23285
 43.00000, 0.23268
 44.00000, 0.23306
 45.00000, 0.23314
 46.00000, 0.23343
 47.00000, 0.23341
 48.00000, 0.23417
 49.00000, 0.23427
 50.00000, 0.23450
 51.00000, 0.23501
 52.00000, 0.23577
 53.00000, 0.23657
 54.00000, 0.23737
 55.00000, 0.23798
 56.00000, 0.23837
 57.00000, 0.23914
 58.00000, 0.23969
 59.00000, 0.24067
 60.00000, 0.24087
 61.00000, 0.24185
 62.00000, 0.24243
 63.00000, 0.24258
 64.00000, 0.24378
 65.00000, 0.24441
 66.00000, 0.24479
 67.00000, 0.24473
 68.00000, 0.24596
 69.00000, 0.24651
 70.00000, 0.24716
 71.00000, 0.24820
 72.00000, 0.24848
 73.00000, 0.24912
 74.00000, 0.25051
 75.00000, 0.25049
 76.00000, 0.25090
 77.00000, 0.25175
##END=$$ End of the data block
