##TITLE=Spectrum
##JCAMP-DX=5.00 $$ chemotion-converter-app (1.7.0)
##DATA TYPE=CYCLIC VOLTAMMETRY
##DATA CLASS=XYPOINTS
##ORIGIN=
##OWNER=
##XUNITS=Voltage in V
##YUNITS=Current in A
##DATE=2.7.2020
##SCAN_RATE=0.0999998
##STEP_SIZE=0.002
##CYCLES=3
##SOFTWARE_VERSION=7.8.1
##SOFTWARE=Framework
##VOLTAGE_LIMIT_END=0.00000E+000
##SERIAL=IFC1010-23191
##FIRSTX=-9.97983E-001
##LASTX=-9.99973E-001
##MINX=-0.999973
##MAXX=0.400042
##MINY=-0.000113894
##MAXY=6.63924e-05
##NPOINTS=1400
##FIRSTY=-6.41951E-005
##XUNITS=Voltage in V
##YUNITS=Current in A
##XYPOINTS=(XY..XY)
-9.97983E-001, -6.41951E-005
-9.95977E-001, -6.39619E-005
-9.93997E-001, -6.37491E-005
-9.91994E-001, -6.35556E-005
-9.89997E-001, -6.33784E-005
-9.88009E-001, -6.32131E-005
-9.86004E-001, -6.30455E-005
-9.84010E-001, -6.28865E-005
-9.82010E-001, -6.27360E-005
-9.80005E-001, -6.25962E-005
-9.78014E-001, -6.24555E-005
-9.75992E-001, -6.23098E-005
-9.73985E-001, -6.21645E-005
-9.71989E-001, -6.20356E-005
-9.70002E-001, -6.19130E-005
-9.68009E-001, -6.17938E-005
-9.66012E-001, -6.16751E-005
-9.64004E-001, -6.15555E-005
-9.62014E-001, -6.14417E-005
-9.59993E-001, -6.13323E-005
-9.58000E-001, -6.12245E-005
-9.56015E-001, -6.11166E-005
-9.54011E-001, -6.10057E-005
-9.52008E-001, -6.09054E-005
-9.50004E-001, -6.08045E-005
-9.47992E-001, -6.06990E-005
-9.45985E-001, -6.05969E-005
-9.44001E-001, -6.05091E-005
-9.42006E-001, -6.04220E-005
-9.39995E-001, -6.03298E-005
-9.38026E-001, -6.02394E-005
-9.36027E-001, -6.01569E-005
-9.34007E-001, -6.00705E-005
-9.32005E-001, -5.99813E-005
-9.30008E-001, -5.98898E-005
-9.28016E-001, -5.98044E-005
-9.26010E-001, -5.97225E-005
-9.24026E-001, -5.96460E-005
-9.22014E-001, -5.95652E-005
-9.20017E-001, -5.94820E-005
-9.18033E-001, -5.94047E-005
-9.16019E-001, -5.93316E-005
-9.14043E-001, -5.92654E-005
-9.12041E-001, -5.91907E-005
-9.09970E-001, -5.91147E-005
-9.07967E-001, -5.90386E-005
-9.05973E-001, -5.89677E-005
-9.03982E-001, -5.88955E-005
-9.01972E-001, -5.88238E-005
-8.99978E-001, -5.87569E-005
-8.97986E-001, -5.86897E-005
-8.95967E-001, -5.86182E-005
-8.93966E-001, -5.85509E-005
-8.91980E-001, -5.84850E-005
-8.89975E-001, -5.84266E-005
-8.87980E-001, -5.83597E-005
-8.85995E-001, -5.82936E-005
-8.84004E-001, -5.82272E-005
-8.81992E-001, -5.81649E-005
-8.79999E-001, -5.81041E-005
-8.77983E-001, -5.80395E-005
-8.75993E-001, -5.79760E-005
-8.74003E-001, -5.79147E-005
-8.71993E-001, -5.78543E-005
-8.69981E-001, -5.77967E-005
-8.67983E-001, -5.77389E-005
-8.65998E-001, -5.76845E-005
-8.64000E-001, -5.76201E-005
-8.61995E-001, -5.75569E-005
-8.60004E-001, -5.74977E-005
-8.57986E-001, -5.74454E-005
-8.55996E-001, -5.73923E-005
-8.53997E-001, -5.73369E-005
-8.51995E-001, -5.72766E-005
-8.49996E-001, -5.72137E-005
-8.47999E-001, -5.71548E-005
-8.45980E-001, -5.71042E-005
-8.43974E-001, -5.70538E-005
-8.41986E-001, -5.69986E-005
-8.39987E-001, -5.69388E-005
-8.37976E-001, -5.68780E-005
-8.35998E-001, -5.68216E-005
-8.34010E-001, -5.67699E-005
-8.31977E-001, -5.67184E-005
-8.29986E-001, -5.66707E-005
-8.27996E-001, -5.66169E-005
-8.25996E-001, -5.65617E-005
-8.23999E-001, -5.65046E-005
-8.22018E-001, -5.64546E-005
-8.20012E-001, -5.64100E-005
-8.18002E-001, -5.63589E-005
-8.16014E-001, -5.62993E-005
-8.14004E-001, -5.62421E-005
-8.12023E-001, -5.61869E-005
-8.10014E-001, -5.61367E-005
-8.08026E-001, -5.60874E-005
-8.06006E-001, -5.60453E-005
-8.04022E-001, -5.59988E-005
-8.02027E-001, -5.59456E-005
-8.00024E-001, -5.58908E-005
-7.98018E-001, -5.58451E-005
-7.96023E-001, -5.57956E-005
-7.94005E-001, -5.57451E-005
-7.92008E-001, -5.56907E-005
-7.90021E-001, -5.56376E-005
-7.88017E-001, -5.55853E-005
-7.86039E-001, -5.55433E-005
-7.84041E-001, -5.55023E-005
-7.82011E-001, -5.54568E-005
-7.80025E-001, -5.54102E-005
-7.78024E-001, -5.53612E-005
-7.76026E-001, -5.53149E-005
-7.74029E-001, -5.52701E-005
-7.72042E-001, -5.52202E-005
-7.70020E-001, -5.51740E-005
-7.68010E-001, -5.51231E-005
-7.66008E-001, -5.50764E-005
-7.64022E-001, -5.50325E-005
-7.62025E-001, -5.49917E-005
-7.60023E-001, -5.49498E-005
-7.58046E-001, -5.49068E-005
-7.56010E-001, -5.48563E-005
-7.54030E-001, -5.48099E-005
-7.52044E-001, -5.47665E-005
-7.49983E-001, -5.47243E-005
-7.47985E-001, -5.46827E-005
-7.45991E-001, -5.46318E-005
-7.43981E-001, -5.45839E-005
-7.41972E-001, -5.45422E-005
-7.39974E-001, -5.45016E-005
-7.37995E-001, -5.44585E-005
-7.35991E-001, -5.44151E-005
-7.34003E-001, -5.43650E-005
-7.32008E-001, -5.43194E-005
-7.29980E-001, -5.42709E-005
-7.27989E-001, -5.42320E-005
-7.25983E-001, -5.41906E-005
-7.23992E-001, -5.41412E-005
-7.21990E-001, -5.40915E-005
-7.19982E-001, -5.40375E-005
-7.17979E-001, -5.39850E-005
-7.15985E-001, -5.39401E-005
-7.13989E-001, -5.38926E-005
-7.12006E-001, -5.38493E-005
-7.10005E-001, -5.37956E-005
-7.08023E-001, -5.37417E-005
-7.06024E-001, -5.36920E-005
-7.03999E-001, -5.36396E-005
-7.02006E-001, -5.35753E-005
-7.00001E-001, -5.35063E-005
-6.98018E-001, -5.34380E-005
-6.96016E-001, -5.33793E-005
-6.94001E-001, -5.33272E-005
-6.91989E-001, -5.32732E-005
-6.89996E-001, -5.32153E-005
-6.88003E-001, -5.31512E-005
-6.86000E-001, -5.30738E-005
-6.84006E-001, -5.29903E-005
-6.82016E-001, -5.29093E-005
-6.80030E-001, -5.28201E-005
-6.78026E-001, -5.27244E-005
-6.76013E-001, -5.26222E-005
-6.74024E-001, -5.25239E-005
-6.72030E-001, -5.24393E-005
-6.70028E-001, -5.23459E-005
-6.68009E-001, -5.22662E-005
-6.65997E-001, -5.21823E-005
-6.64008E-001, -5.20599E-005
-6.62015E-001, -5.19259E-005
-6.60014E-001, -5.17874E-005
-6.58025E-001, -5.16431E-005
-6.56020E-001, -5.14993E-005
-6.54037E-001, -5.13400E-005
-6.52010E-001, -5.11753E-005
-6.50017E-001, -5.10152E-005
-6.48010E-001, -5.08416E-005
-6.46010E-001, -5.06646E-005
-6.44029E-001, -5.04996E-005
-6.42010E-001, -5.03121E-005
-6.40009E-001, -5.00894E-005
-6.38019E-001, -4.98654E-005
-6.36015E-001, -4.96270E-005
-6.34035E-001, -4.93748E-005
-6.32037E-001, -4.90891E-005
-6.30040E-001, -4.88277E-005
-6.28022E-001, -4.85515E-005
-6.26025E-001, -4.82253E-005
-6.24024E-001, -4.79153E-005
-6.22018E-001, -4.75847E-005
-6.20019E-001, -4.72661E-005
-6.18032E-001, -4.69071E-005
-6.16029E-001, -4.65146E-005
-6.14041E-001, -4.61219E-005
-6.12034E-001, -4.57090E-005
-6.10046E-001, -4.52957E-005
-6.08041E-001, -4.48379E-005
-6.06042E-001, -4.43406E-005
-6.04057E-001, -4.38511E-005
-6.02022E-001, -4.33692E-005
-6.00037E-001, -4.28632E-005
-5.98039E-001, -4.23019E-005
-5.96042E-001, -4.17286E-005
-5.94044E-001, -4.11759E-005
-5.92041E-001, -4.06108E-005
-5.90041E-001, -3.99819E-005
-5.87977E-001, -3.92773E-005
-5.85979E-001, -3.86156E-005
-5.84007E-001, -3.79772E-005
-5.81994E-001, -3.72975E-005
-5.79987E-001, -3.65576E-005
-5.77998E-001, -3.58149E-005
-5.75990E-001, -3.51032E-005
-5.73989E-001, -3.43646E-005
-5.71999E-001, -3.35731E-005
-5.70000E-001, -3.27537E-005
-5.68006E-001, -3.19407E-005
-5.65992E-001, -3.11354E-005
-5.63991E-001, -3.02868E-005
-5.61987E-001, -2.94022E-005
-5.59996E-001, -2.85245E-005
-5.57990E-001, -2.76523E-005
-5.55991E-001, -2.67671E-005
-5.53995E-001, -2.58447E-005
-5.52002E-001, -2.49003E-005
-5.49985E-001, -2.39670E-005
-5.47993E-001, -2.30243E-005
-5.45998E-001, -2.20535E-005
-5.44011E-001, -2.10649E-005
-5.41999E-001, -2.00743E-005
-5.39995E-001, -1.90890E-005
-5.37975E-001, -1.80833E-005
-5.35985E-001, -1.70582E-005
-5.33990E-001, -1.60414E-005
-5.31996E-001, -1.50174E-005
-5.30008E-001, -1.39997E-005
-5.28026E-001, -1.29640E-005
-5.26028E-001, -1.19123E-005
-5.24010E-001, -1.08742E-005
-5.22016E-001, -9.82200E-006
-5.20016E-001, -8.76487E-006
-5.18016E-001, -7.70183E-006
-5.15998E-001, -6.64990E-006
-5.14008E-001, -5.60092E-006
-5.11982E-001, -4.54184E-006
-5.09990E-001, -3.48073E-006
-5.08010E-001, -2.43103E-006
-5.06009E-001, -1.38448E-006
-5.04021E-001, -3.59235E-007
-5.02028E-001, 6.96611E-007
-5.00022E-001, 1.09462E-006
-4.98033E-001, 2.76316E-006
-4.96036E-001, 3.78296E-006
-4.94036E-001, 4.80426E-006
-4.92026E-001, 5.81460E-006
-4.90040E-001, 6.81496E-006
-4.88033E-001, 7.80113E-006
-4.86017E-001, 8.77051E-006
-4.84024E-001, 9.73899E-006
-4.82020E-001, 1.07187E-005
-4.80025E-001, 1.16501E-005
-4.78039E-001, 1.25612E-005
-4.76041E-001, 1.34600E-005
-4.74030E-001, 1.43376E-005
-4.72034E-001, 1.51951E-005
-4.70046E-001, 1.60265E-005
-4.68036E-001, 1.68475E-005
-4.66046E-001, 1.76006E-005
-4.64040E-001, 1.83411E-005
-4.62031E-001, 1.90668E-005
-4.60027E-001, 1.97585E-005
-4.58034E-001, 2.04152E-005
-4.56030E-001, 2.10561E-005
-4.54041E-001, 2.16774E-005
-4.52047E-001, 2.22359E-005
-4.50069E-001, 2.27500E-005
-4.48031E-001, 2.32327E-005
-4.46038E-001, 2.36921E-005
-4.44036E-001, 2.40927E-005
-4.42032E-001, 2.44458E-005
-4.40046E-001, 2.47628E-005
-4.38055E-001, 2.50161E-005
-4.36021E-001, 2.52312E-005
-4.34026E-001, 2.53776E-005
-4.32035E-001, 2.54728E-005
-4.30033E-001, 2.55194E-005
-4.27994E-001, 2.55363E-005
-4.25987E-001, 2.54423E-005
-4.24010E-001, 2.52841E-005
-4.21986E-001, 2.50766E-005
-4.19994E-001, 2.48282E-005
-4.17999E-001, 2.45120E-005
-4.15994E-001, 2.41324E-005
-4.13991E-001, 2.37067E-005
-4.12007E-001, 2.32179E-005
-4.09985E-001, 2.26812E-005
-4.07996E-001, 2.21001E-005
-4.06005E-001, 2.14768E-005
-4.04000E-001, 2.08151E-005
-4.02000E-001, 2.01146E-005
-4.00013E-001, 1.93875E-005
-3.98010E-001, 1.86505E-005
-3.95977E-001, 1.79025E-005
-3.93997E-001, 1.71508E-005
-3.91998E-001, 1.63960E-005
-3.90005E-001, 1.56312E-005
-3.88003E-001, 1.48758E-005
-3.85988E-001, 1.41336E-005
-3.83988E-001, 1.34078E-005
-3.81980E-001, 1.26912E-005
-3.79996E-001, 1.19847E-005
-3.77997E-001, 1.12869E-005
-3.76009E-001, 1.06092E-005
-3.74031E-001, 9.95770E-006
-3.71990E-001, 9.33753E-006
-3.70019E-001, 8.74083E-006
-3.68033E-001, 8.16041E-006
-3.66017E-001, 7.60067E-006
-3.64025E-001, 7.03982E-006
-3.62033E-001, 6.51797E-006
-3.60018E-001, 6.01328E-006
-3.58002E-001, 5.52420E-006
-3.55998E-001, 5.05092E-006
-3.53997E-001, 4.59431E-006
-3.52000E-001, 4.15543E-006
-3.50025E-001, 3.73932E-006
-3.48027E-001, 3.34725E-006
-3.46004E-001, 2.96971E-006
-3.43997E-001, 2.60297E-006
-3.42002E-001, 2.24038E-006
-3.40003E-001, 1.89687E-006
-3.38011E-001, 1.56649E-006
-3.36010E-001, 1.24905E-006
-3.34001E-001, 9.39762E-007
-3.31988E-001, 6.41331E-007
-3.30005E-001, 3.60398E-007
-3.27997E-001, 8.52294E-008
-3.26003E-001, -1.76834E-007
-3.24012E-001, -4.28652E-007
-3.22018E-001, -6.73492E-007
-3.20002E-001, -9.11806E-007
-3.18021E-001, -1.15406E-006
-3.16032E-001, -1.37619E-006
-3.14020E-001, -1.58737E-006
-3.12024E-001, -1.78995E-006
-3.10022E-001, -1.98637E-006
-3.07994E-001, -2.17813E-006
-3.05992E-001, -2.36851E-006
-3.04010E-001, -2.55341E-006
-3.02017E-001, -2.72540E-006
-3.00030E-001, -2.88762E-006
-2.98031E-001, -3.03768E-006
-2.96024E-001, -3.18454E-006
-2.94019E-001, -3.33012E-006
-2.92007E-001, -3.46824E-006
-2.90025E-001, -3.59931E-006
-2.88022E-001, -3.72500E-006
-2.86038E-001, -3.84483E-006
-2.84015E-001, -3.96168E-006
-2.82001E-001, -4.07705E-006
-2.80007E-001, -4.18583E-006
-2.78014E-001, -4.28719E-006
-2.76031E-001, -4.38245E-006
-2.74040E-001, -4.46405E-006
-2.72043E-001, -4.54023E-006
-2.70056E-001, -4.61917E-006
-2.67981E-001, -4.68352E-006
-2.65975E-001, -4.75766E-006
-2.63980E-001, -4.82680E-006
-2.61982E-001, -4.89427E-006
-2.60001E-001, -4.95508E-006
-2.57979E-001, -5.01090E-006
-2.55966E-001, -5.06466E-006
-2.53966E-001, -5.10711E-006
-2.51975E-001, -5.14728E-006
-2.49978E-001, -5.18510E-006
-2.47987E-001, -5.22227E-006
-2.45989E-001, -5.25492E-006
-2.43990E-001, -5.27765E-006
-2.41974E-001, -5.30298E-006
-2.39989E-001, -5.32548E-006
-2.37995E-001, -5.33865E-006
-2.35982E-001, -5.35097E-006
-2.33985E-001, -5.35369E-006
-2.31992E-001, -5.35117E-006
-2.29978E-001, -5.34358E-006
-2.27973E-001, -5.32967E-006
-2.25981E-001, -5.31226E-006
-2.23987E-001, -5.28283E-006
-2.22002E-001, -5.24798E-006
-2.19988E-001, -5.20397E-006
-2.17986E-001, -5.15411E-006
-2.15982E-001, -5.08854E-006
-2.13998E-001, -5.01217E-006
-2.11991E-001, -4.91966E-006
-2.09989E-001, -4.82032E-006
-2.08005E-001, -4.71200E-006
-2.06006E-001, -4.59338E-006
-2.03999E-001, -4.45895E-006
-2.01997E-001, -4.30564E-006
-2.00000E-001, -4.13609E-006
-1.97999E-001, -3.94400E-006
-1.96018E-001, -3.73397E-006
-1.94011E-001, -3.51062E-006
-1.92004E-001, -3.27010E-006
-1.89991E-001, -3.00654E-006
-1.87991E-001, -2.72488E-006
-1.85994E-001, -2.41993E-006
-1.84004E-001, -2.09507E-006
-1.82013E-001, -1.75173E-006
-1.79989E-001, -1.38607E-006
-1.78005E-001, -9.98516E-007
-1.75989E-001, -5.90075E-007
-1.73993E-001, -1.39826E-007
-1.72000E-001, 3.16241E-007
-1.70016E-001, 7.98460E-007
-1.68006E-001, 1.09462E-006
-1.66003E-001, 1.82072E-006
-1.64012E-001, 2.37433E-006
-1.62009E-001, 2.94808E-006
-1.60015E-001, 3.53772E-006
-1.58021E-001, 4.15773E-006
-1.56023E-001, 4.79820E-006
-1.54004E-001, 5.45863E-006
-1.52003E-001, 6.13937E-006
-1.50002E-001, 6.83346E-006
-1.48032E-001, 7.56330E-006
-1.46030E-001, 8.30539E-006
-1.44021E-001, 9.07087E-006
-1.42021E-001, 9.88576E-006
-1.40013E-001, 1.06892E-005
-1.38020E-001, 1.15126E-005
-1.36028E-001, 1.23511E-005
-1.34018E-001, 1.32084E-005
-1.32025E-001, 1.40804E-005
-1.30029E-001, 1.49677E-005
-1.28011E-001, 1.58731E-005
-1.26000E-001, 1.67996E-005
-1.24016E-001, 1.77291E-005
-1.22017E-001, 1.86745E-005
-1.20034E-001, 1.96303E-005
-1.18051E-001, 2.06036E-005
-1.16062E-001, 2.15924E-005
-1.14038E-001, 2.25834E-005
-1.12037E-001, 2.35900E-005
-1.10034E-001, 2.46031E-005
-1.08040E-001, 2.56231E-005
-1.06006E-001, 2.67053E-005
-1.03997E-001, 2.77345E-005
-1.01968E-001, 2.87707E-005
-9.99787E-002, 2.98189E-005
-9.79690E-002, 3.08692E-005
-9.59642E-002, 3.19254E-005
-9.40095E-002, 3.29721E-005
-9.20089E-002, 3.40343E-005
-8.99937E-002, 3.50973E-005
-8.79956E-002, 3.61628E-005
-8.59933E-002, 3.72252E-005
-8.40073E-002, 3.82868E-005
-8.19955E-002, 3.93463E-005
-8.00040E-002, 4.04010E-005
-7.79872E-002, 4.14620E-005
-7.59887E-002, 4.25002E-005
-7.39997E-002, 4.35358E-005
-7.20000E-002, 4.45757E-005
-6.99915E-002, 4.56010E-005
-6.80046E-002, 4.66131E-005
-6.60082E-002, 4.76194E-005
-6.39880E-002, 4.86115E-005
-6.20037E-002, 4.96042E-005
-6.00077E-002, 5.05735E-005
-5.80012E-002, 5.15255E-005
-5.59981E-002, 5.24673E-005
-5.40025E-002, 5.33903E-005
-5.19836E-002, 5.43000E-005
-4.99847E-002, 5.51825E-005
-4.79820E-002, 5.60468E-005
-4.59989E-002, 5.68891E-005
-4.40033E-002, 5.77013E-005
-4.20144E-002, 5.84941E-005
-4.00125E-002, 5.92670E-005
-3.79982E-002, 6.00021E-005
-3.60005E-002, 6.07013E-005
-3.39982E-002, 6.13855E-005
-3.19884E-002, 6.20232E-005
-3.00150E-002, 6.26244E-005
-2.80240E-002, 6.31891E-005
-2.59862E-002, 6.37248E-005
-2.40019E-002, 6.42158E-005
-2.20026E-002, 6.46466E-005
-2.00128E-002, 6.50412E-005
-1.80055E-002, 6.53965E-005
-1.60220E-002, 6.56974E-005
-1.40206E-002, 6.59440E-005
-1.20012E-002, 6.61373E-005
-9.99022E-003, 6.62847E-005
-8.00547E-003, 6.63767E-005
-6.00612E-003, 6.63924E-005
-4.03263E-003, 6.63545E-005
-2.00409E-003, 6.62619E-005
1.92510E-006, 6.60998E-005
1.99251E-003, 6.58772E-005
3.99478E-003, 6.55894E-005
5.99162E-003, 6.52408E-005
7.99347E-003, 6.48325E-005
9.97697E-003, 6.43613E-005
1.20097E-002, 6.38344E-005
1.40028E-002, 6.32471E-005
1.59813E-002, 6.25986E-005
1.79952E-002, 6.19174E-005
1.99916E-002, 6.11877E-005
2.19851E-002, 6.04163E-005
2.39878E-002, 5.96086E-005
2.59968E-002, 5.87783E-005
2.79932E-002, 5.79233E-005
2.99905E-002, 5.70601E-005
3.19831E-002, 5.61796E-005
3.39762E-002, 5.53027E-005
3.59768E-002, 5.44299E-005
3.79870E-002, 5.35565E-005
3.99880E-002, 5.26865E-005
4.19807E-002, 5.18315E-005
4.39834E-002, 5.10017E-005
4.59815E-002, 5.01792E-005
4.79954E-002, 4.93774E-005
5.00060E-002, 4.85943E-005
5.20070E-002, 4.78340E-005
5.40531E-002, 4.71108E-005
5.60453E-002, 4.63865E-005
5.80351E-002, 4.56870E-005
6.00274E-002, 4.50144E-005
6.20300E-002, 4.43565E-005
6.40419E-002, 4.37192E-005
6.60404E-002, 4.31042E-005
6.80368E-002, 4.25063E-005
7.00575E-002, 4.19290E-005
7.20297E-002, 4.13692E-005
7.40378E-002, 4.08269E-005
7.60580E-002, 4.03033E-005
7.80427E-002, 3.97949E-005
8.00442E-002, 3.93055E-005
8.20327E-002, 3.88307E-005
8.40316E-002, 3.83673E-005
8.60209E-002, 3.79196E-005
8.80174E-002, 3.74898E-005
9.00263E-002, 3.70693E-005
9.20273E-002, 3.66623E-005
9.40208E-002, 3.62699E-005
9.60189E-002, 3.58930E-005
9.80187E-002, 3.55257E-005
1.00034E-001, 3.51728E-005
1.02035E-001, 3.48323E-005
1.04031E-001, 3.45047E-005
1.06032E-001, 3.41883E-005
1.08033E-001, 3.38834E-005
1.10029E-001, 3.35878E-005
1.12015E-001, 3.33059E-005
1.14003E-001, 3.30325E-005
1.16017E-001, 3.27703E-005
1.18019E-001, 3.25197E-005
1.20010E-001, 3.22866E-005
1.22005E-001, 3.20611E-005
1.24004E-001, 3.18424E-005
1.26015E-001, 3.16359E-005
1.28029E-001, 3.14412E-005
1.30020E-001, 3.12570E-005
1.32002E-001, 3.10782E-005
1.34005E-001, 3.09130E-005
1.36005E-001, 3.07554E-005
1.37999E-001, 3.05999E-005
1.40012E-001, 3.04500E-005
1.42016E-001, 3.03125E-005
1.44008E-001, 3.01800E-005
1.46002E-001, 3.00496E-005
1.48007E-001, 2.99149E-005
1.50006E-001, 2.97814E-005
1.52016E-001, 2.96445E-005
1.54030E-001, 2.95031E-005
1.56008E-001, 2.93581E-005
1.58017E-001, 2.92064E-005
1.60008E-001, 2.90469E-005
1.62003E-001, 2.88740E-005
1.64004E-001, 2.86974E-005
1.66022E-001, 2.85109E-005
1.68017E-001, 2.83242E-005
1.70006E-001, 2.81273E-005
1.72003E-001, 2.79266E-005
1.74012E-001, 2.77177E-005
1.75992E-001, 2.75064E-005
1.78004E-001, 2.72917E-005
1.80017E-001, 2.70771E-005
1.82010E-001, 2.68628E-005
1.84004E-001, 2.66481E-005
1.85990E-001, 2.64343E-005
1.87998E-001, 2.62198E-005
1.89997E-001, 2.60089E-005
1.92028E-001, 2.58011E-005
1.94011E-001, 2.55991E-005
1.96008E-001, 2.53970E-005
1.98002E-001, 2.51958E-005
2.00003E-001, 2.49984E-005
2.02015E-001, 2.48041E-005
2.04007E-001, 2.46135E-005
2.06036E-001, 2.44259E-005
2.08007E-001, 2.42420E-005
2.10004E-001, 2.40607E-005
2.12000E-001, 2.38835E-005
2.14046E-001, 2.37146E-005
2.16042E-001, 2.35422E-005
2.18048E-001, 2.33718E-005
2.20056E-001, 2.32066E-005
2.22043E-001, 2.30426E-005
2.24047E-001, 2.28792E-005
2.26044E-001, 2.27217E-005
2.28046E-001, 2.25660E-005
2.30053E-001, 2.24130E-005
2.32060E-001, 2.22599E-005
2.34058E-001, 2.21117E-005
2.36035E-001, 2.19645E-005
2.38035E-001, 2.18215E-005
2.40043E-001, 2.16792E-005
2.42030E-001, 2.15411E-005
2.44041E-001, 2.14024E-005
2.46048E-001, 2.12642E-005
2.48040E-001, 2.11307E-005
2.50042E-001, 2.09963E-005
2.52033E-001, 2.08670E-005
2.54044E-001, 2.07388E-005
2.56063E-001, 2.06122E-005
2.58048E-001, 2.04872E-005
2.60042E-001, 2.03642E-005
2.62043E-001, 2.02432E-005
2.64052E-001, 2.01236E-005
2.66042E-001, 2.00074E-005
2.68025E-001, 1.98931E-005
2.70042E-001, 1.97796E-005
2.72041E-001, 1.96663E-005
2.74044E-001, 1.95566E-005
2.76028E-001, 1.94493E-005
2.78037E-001, 1.93435E-005
2.80032E-001, 1.92398E-005
2.82044E-001, 1.91374E-005
2.84039E-001, 1.90370E-005
2.86026E-001, 1.89393E-005
2.88029E-001, 1.88419E-005
2.90022E-001, 1.87487E-005
2.92006E-001, 1.86533E-005
2.94036E-001, 1.85603E-005
2.96025E-001, 1.84721E-005
2.98018E-001, 1.83855E-005
3.00015E-001, 1.82980E-005
3.02022E-001, 1.82144E-005
3.04016E-001, 1.81312E-005
3.06023E-001, 1.80499E-005
3.08021E-001, 1.79665E-005
3.10024E-001, 1.78877E-005
3.12015E-001, 1.78098E-005
3.14032E-001, 1.77331E-005
3.16001E-001, 1.76542E-005
3.17996E-001, 1.75803E-005
3.20031E-001, 1.75056E-005
3.22008E-001, 1.74328E-005
3.23992E-001, 1.73598E-005
3.26005E-001, 1.72889E-005
3.28001E-001, 1.72163E-005
3.30001E-001, 1.71432E-005
3.32002E-001, 1.70712E-005
3.34025E-001, 1.69989E-005
3.36016E-001, 1.69287E-005
3.38004E-001, 1.68569E-005
3.40015E-001, 1.67867E-005
3.41998E-001, 1.67136E-005
3.43988E-001, 1.66426E-005
3.46009E-001, 1.65696E-005
3.48005E-001, 1.64966E-005
3.49993E-001, 1.64201E-005
3.51996E-001, 1.63436E-005
3.53988E-001, 1.62681E-005
3.55993E-001, 1.61900E-005
3.58020E-001, 1.61100E-005
3.60017E-001, 1.60357E-005
3.61996E-001, 1.59597E-005
3.63996E-001, 1.58826E-005
3.65996E-001, 1.58024E-005
3.67987E-001, 1.57231E-005
3.69981E-001, 1.56439E-005
3.72003E-001, 1.55637E-005
3.74047E-001, 1.54855E-005
3.76043E-001, 1.54016E-005
3.78050E-001, 1.53178E-005
3.80034E-001, 1.52352E-005
3.82043E-001, 1.51519E-005
3.84064E-001, 1.50704E-005
3.86061E-001, 1.49900E-005
3.88043E-001, 1.49078E-005
3.90052E-001, 1.48293E-005
3.92061E-001, 1.47446E-005
3.94053E-001, 1.46648E-005
3.96042E-001, 1.45825E-005
3.98058E-001, 1.45001E-005
4.00042E-001, 1.44176E-005
3.98059E-001, 1.40469E-005
3.96032E-001, 1.37778E-005
3.94048E-001, 1.35502E-005
3.92050E-001, 1.33465E-005
3.90069E-001, 1.31589E-005
3.88059E-001, 1.29823E-005
3.86073E-001, 1.28170E-005
3.84087E-001, 1.26569E-005
3.82052E-001, 1.25032E-005
3.80042E-001, 1.23544E-005
3.78044E-001, 1.22110E-005
3.76048E-001, 1.20712E-005
3.74049E-001, 1.19335E-005
3.72018E-001, 1.17943E-005
3.69985E-001, 1.16642E-005
3.68001E-001, 1.15394E-005
3.66017E-001, 1.14144E-005
3.64007E-001, 1.12935E-005
3.62012E-001, 1.11730E-005
3.60019E-001, 1.10558E-005
3.58012E-001, 1.09366E-005
3.55994E-001, 1.08222E-005
3.53995E-001, 1.07052E-005
3.51998E-001, 1.05912E-005
3.49994E-001, 1.04819E-005
3.48002E-001, 1.03697E-005
3.46001E-001, 1.02596E-005
3.43989E-001, 1.01546E-005
3.41999E-001, 1.00504E-005
3.39994E-001, 9.94579E-006
3.37999E-001, 9.84235E-006
3.36009E-001, 9.74217E-006
3.34030E-001, 9.64221E-006
3.32007E-001, 9.54147E-006
3.30001E-001, 9.44326E-006
3.28014E-001, 9.34703E-006
3.26020E-001, 9.25055E-006
3.24006E-001, 9.15685E-006
3.22018E-001, 9.06316E-006
3.20026E-001, 8.97224E-006
3.18007E-001, 8.88283E-006
3.16018E-001, 8.79438E-006
3.14044E-001, 8.70830E-006
3.12035E-001, 8.62283E-006
3.10047E-001, 8.53746E-006
3.08041E-001, 8.45458E-006
3.06045E-001, 8.36998E-006
3.04034E-001, 8.28790E-006
3.02039E-001, 8.20861E-006
3.00025E-001, 8.12926E-006
2.98031E-001, 8.05137E-006
2.96028E-001, 7.95773E-006
2.94042E-001, 7.88267E-006
2.92008E-001, 7.80885E-006
2.90035E-001, 7.73608E-006
2.88026E-001, 7.66324E-006
2.86020E-001, 7.59287E-006
2.84038E-001, 7.52269E-006
2.82041E-001, 7.45272E-006
2.80041E-001, 7.38393E-006
2.78040E-001, 7.31769E-006
2.76022E-001, 7.25167E-006
2.74029E-001, 7.18679E-006
2.72038E-001, 7.12429E-006
2.70037E-001, 7.06035E-006
2.68004E-001, 6.99662E-006
2.66029E-001, 6.93473E-006
2.64039E-001, 6.87180E-006
2.62041E-001, 6.81035E-006
2.60040E-001, 6.74833E-006
2.58053E-001, 6.68932E-006
2.56041E-001, 6.63101E-006
2.54047E-001, 6.57347E-006
2.52014E-001, 6.51492E-006
2.50029E-001, 6.45683E-006
2.48038E-001, 6.40104E-006
2.46035E-001, 6.34365E-006
2.44034E-001, 6.28801E-006
2.42020E-001, 6.23311E-006
2.40032E-001, 6.17675E-006
2.38025E-001, 6.12150E-006
2.36023E-001, 6.06702E-006
2.34048E-001, 6.01243E-006
2.32048E-001, 5.95810E-006
2.30046E-001, 5.90525E-006
2.28045E-001, 5.85270E-006
2.26026E-001, 5.79992E-006
2.24033E-001, 5.74921E-006
2.22034E-001, 5.69881E-006
2.20034E-001, 5.64778E-006
2.18048E-001, 5.59623E-006
2.16035E-001, 5.54582E-006
2.14045E-001, 5.49622E-006
2.11984E-001, 5.44227E-006
2.09984E-001, 5.39425E-006
2.08002E-001, 5.34505E-006
2.06006E-001, 5.29821E-006
2.03992E-001, 5.25097E-006
2.02006E-001, 5.20316E-006
2.00001E-001, 5.15675E-006
1.98005E-001, 5.10909E-006
1.95995E-001, 5.06217E-006
1.94013E-001, 5.01473E-006
1.92018E-001, 4.96721E-006
1.89995E-001, 4.91971E-006
1.88000E-001, 4.87170E-006
1.86005E-001, 4.82442E-006
1.84001E-001, 4.77615E-006
1.82000E-001, 4.72711E-006
1.80008E-001, 4.67820E-006
1.77997E-001, 4.62730E-006
1.75992E-001, 4.57656E-006
1.73995E-001, 4.52536E-006
1.71988E-001, 4.47201E-006
1.69998E-001, 4.41740E-006
1.68005E-001, 4.36270E-006
1.66011E-001, 4.30482E-006
1.64000E-001, 4.24621E-006
1.62007E-001, 4.18604E-006
1.60013E-001, 4.12434E-006
1.58020E-001, 4.06241E-006
1.56006E-001, 3.99930E-006
1.54023E-001, 3.93443E-006
1.52017E-001, 3.86973E-006
1.50007E-001, 3.80179E-006
1.48009E-001, 3.73560E-006
1.46002E-001, 3.66927E-006
1.44008E-001, 3.60216E-006
1.42016E-001, 3.53705E-006
1.40012E-001, 3.47309E-006
1.38013E-001, 3.41166E-006
1.36020E-001, 3.35229E-006
1.34025E-001, 3.29537E-006
1.32008E-001, 3.24327E-006
1.30028E-001, 3.19390E-006
1.28039E-001, 3.14752E-006
1.26037E-001, 3.10563E-006
1.24017E-001, 3.06790E-006
1.22013E-001, 3.03339E-006
1.20030E-001, 3.00300E-006
1.18028E-001, 2.97512E-006
1.16024E-001, 2.95077E-006
1.14005E-001, 2.93014E-006
1.12016E-001, 2.91146E-006
1.10028E-001, 2.89415E-006
1.08027E-001, 2.87924E-006
1.06023E-001, 2.86506E-006
1.04029E-001, 2.85110E-006
1.02026E-001, 2.83729E-006
1.00028E-001, 2.82430E-006
9.80183E-002, 2.80955E-006
9.60193E-002, 2.79472E-006
9.40283E-002, 2.77952E-006
9.20215E-002, 2.76313E-006
9.00351E-002, 2.74601E-006
8.80195E-002, 2.72720E-006
8.60130E-002, 2.70759E-006
8.40383E-002, 2.68629E-006
8.20364E-002, 2.66353E-006
8.00467E-002, 2.64123E-006
7.80623E-002, 2.61441E-006
7.60730E-002, 2.58751E-006
7.40382E-002, 2.55524E-006
7.20305E-002, 2.52401E-006
7.00349E-002, 2.49230E-006
6.80348E-002, 2.45484E-006
6.60317E-002, 2.41592E-006
6.40486E-002, 2.37509E-006
6.20338E-002, 2.33190E-006
6.00399E-002, 2.28349E-006
5.80418E-002, 2.23279E-006
5.60508E-002, 2.18213E-006
5.40523E-002, 2.12625E-006
5.20141E-002, 2.05805E-006
5.00023E-002, 1.99539E-006
4.79967E-002, 1.92857E-006
4.59927E-002, 1.85427E-006
4.40084E-002, 1.77558E-006
4.19911E-002, 1.69502E-006
3.99989E-002, 1.60653E-006
3.79878E-002, 1.51231E-006
3.59835E-002, 1.41348E-006
3.39921E-002, 1.30629E-006
3.19965E-002, 1.19276E-006
3.00030E-002, 1.07525E-006
2.80061E-002, 9.48055E-007
2.60018E-002, 8.11112E-007
2.39757E-002, 6.58044E-007
2.19739E-002, 5.05139E-007
1.99808E-002, 3.43404E-007
1.79802E-002, 1.71424E-007
1.59888E-002, -1.04552E-008
1.39832E-002, -2.02751E-007
1.19993E-002, -4.05432E-007
9.96821E-003, -6.19230E-007
7.97721E-003, -8.46874E-007
5.97244E-003, -1.07755E-006
3.98352E-003, -1.32878E-006
1.98709E-003, -1.59065E-006
-2.24542E-006, -1.87078E-006
-2.00618E-003, -2.16673E-006
-4.02971E-003, -2.47699E-006
-6.01446E-003, -2.80030E-006
-8.01089E-003, -3.13895E-006
-9.99856E-003, -3.49896E-006
-1.20050E-002, -3.86889E-006
-1.40110E-002, -4.26285E-006
-1.60058E-002, -4.67280E-006
-1.80051E-002, -5.09256E-006
-2.00028E-002, -5.53710E-006
-2.19821E-002, -6.00082E-006
-2.39940E-002, -6.48084E-006
-2.59775E-002, -6.97828E-006
-2.80110E-002, -7.49730E-006
-3.00070E-002, -8.03661E-006
-3.19955E-002, -8.59461E-006
-3.39903E-002, -9.16733E-006
-3.59942E-002, -9.75449E-006
-3.79932E-002, -1.03705E-005
-3.99992E-002, -1.10059E-005
-4.19985E-002, -1.16623E-005
-4.39900E-002, -1.23315E-005
-4.59985E-002, -1.30224E-005
-4.79807E-002, -1.37352E-005
-4.99892E-002, -1.44728E-005
-5.19886E-002, -1.52278E-005
-5.40105E-002, -1.59945E-005
-5.59944E-002, -1.67759E-005
-5.79945E-002, -1.75888E-005
-5.99977E-002, -1.84135E-005
-6.19811E-002, -1.92579E-005
-6.39801E-002, -2.01160E-005
-6.59836E-002, -2.09901E-005
-6.79859E-002, -2.18853E-005
-6.99814E-002, -2.27909E-005
-7.19787E-002, -2.37118E-005
-7.39768E-002, -2.46514E-005
-7.59670E-002, -2.56057E-005
-7.79705E-002, -2.65785E-005
-7.99857E-002, -2.75552E-005
-8.19725E-002, -2.85405E-005
-8.39840E-002, -2.95496E-005
-8.59741E-002, -3.05802E-005
-8.79772E-002, -3.16109E-005
-8.99682E-002, -3.26463E-005
-9.19922E-002, -3.36921E-005
-9.39832E-002, -3.47522E-005
-9.59667E-002, -3.58198E-005
-9.79656E-002, -3.68979E-005
-9.99750E-002, -3.79835E-005
-1.01942E-001, -3.90738E-005
-1.03975E-001, -4.01722E-005
-1.05974E-001, -4.12806E-005
-1.08023E-001, -4.24460E-005
-1.10023E-001, -4.35564E-005
-1.12010E-001, -4.46810E-005
-1.14015E-001, -4.58041E-005
-1.16028E-001, -4.69257E-005
-1.18017E-001, -4.80436E-005
-1.20029E-001, -4.91692E-005
-1.22004E-001, -5.02938E-005
-1.24011E-001, -5.14312E-005
-1.26001E-001, -5.25571E-005
-1.28005E-001, -5.36646E-005
-1.30015E-001, -5.47779E-005
-1.32022E-001, -5.59019E-005
-1.34019E-001, -5.70199E-005
-1.36022E-001, -5.81175E-005
-1.38005E-001, -5.92127E-005
-1.40014E-001, -6.03016E-005
-1.42019E-001, -6.13819E-005
-1.44015E-001, -6.24592E-005
-1.46014E-001, -6.35139E-005
-1.48011E-001, -6.45672E-005
-1.49996E-001, -6.56178E-005
-1.51998E-001, -6.66425E-005
-1.53983E-001, -6.76457E-005
-1.56005E-001, -6.86328E-005
-1.58004E-001, -6.96207E-005
-1.60001E-001, -7.05902E-005
-1.62003E-001, -7.15352E-005
-1.64000E-001, -7.24447E-005
-1.65999E-001, -7.33379E-005
-1.68015E-001, -7.42198E-005
-1.69995E-001, -7.50854E-005
-1.71998E-001, -7.59122E-005
-1.74007E-001, -7.66966E-005
-1.75983E-001, -7.74598E-005
-1.77987E-001, -7.82072E-005
-1.79978E-001, -7.89108E-005
-1.82005E-001, -7.95732E-005
-1.84001E-001, -8.01952E-005
-1.85983E-001, -8.07995E-005
-1.87999E-001, -8.13748E-005
-1.89992E-001, -8.18759E-005
-1.91987E-001, -8.23341E-005
-1.93999E-001, -8.27729E-005
-1.96009E-001, -8.31662E-005
-1.98001E-001, -8.34883E-005
-1.99998E-001, -8.37430E-005
-2.01987E-001, -8.39751E-005
-2.03982E-001, -8.41575E-005
-2.05994E-001, -8.42812E-005
-2.07988E-001, -8.43127E-005
-2.09998E-001, -8.42989E-005
-2.11993E-001, -8.42481E-005
-2.13998E-001, -8.41311E-005
-2.15982E-001, -8.39393E-005
-2.17976E-001, -8.36839E-005
-2.19998E-001, -8.33798E-005
-2.21995E-001, -8.30168E-005
-2.23990E-001, -8.25809E-005
-2.25987E-001, -8.20792E-005
-2.27982E-001, -8.15405E-005
-2.29984E-001, -8.09550E-005
-2.31987E-001, -8.03156E-005
-2.33980E-001, -7.96374E-005
-2.35997E-001, -7.89147E-005
-2.37997E-001, -7.81722E-005
-2.39992E-001, -7.74132E-005
-2.41973E-001, -7.66188E-005
-2.44000E-001, -7.58162E-005
-2.45994E-001, -7.50095E-005
-2.47987E-001, -7.42016E-005
-2.49975E-001, -7.34002E-005
-2.51977E-001, -7.26011E-005
-2.53964E-001, -7.18139E-005
-2.55966E-001, -7.10486E-005
-2.57977E-001, -7.02971E-005
-2.59991E-001, -6.95577E-005
-2.61989E-001, -6.88406E-005
-2.63984E-001, -6.81468E-005
-2.65987E-001, -6.74758E-005
-2.67983E-001, -6.68224E-005
-2.70045E-001, -6.62089E-005
-2.72048E-001, -6.55947E-005
-2.74039E-001, -6.50048E-005
-2.76027E-001, -6.44356E-005
-2.78017E-001, -6.38854E-005
-2.80008E-001, -6.33541E-005
-2.82009E-001, -6.28433E-005
-2.84017E-001, -6.23537E-005
-2.86026E-001, -6.18839E-005
-2.88020E-001, -6.14342E-005
-2.90017E-001, -6.09964E-005
-2.92017E-001, -6.05787E-005
-2.94019E-001, -6.01775E-005
-2.96032E-001, -5.97899E-005
-2.98027E-001, -5.94207E-005
-3.00020E-001, -5.90676E-005
-3.02014E-001, -5.87297E-005
-3.03998E-001, -5.84064E-005
-3.05992E-001, -5.80965E-005
-3.07997E-001, -5.78032E-005
-3.10029E-001, -5.75282E-005
-3.12027E-001, -5.72672E-005
-3.14020E-001, -5.70199E-005
-3.16020E-001, -5.67834E-005
-3.18010E-001, -5.65660E-005
-3.20021E-001, -5.63646E-005
-3.22034E-001, -5.61747E-005
-3.24036E-001, -5.59987E-005
-3.26022E-001, -5.58393E-005
-3.28023E-001, -5.56944E-005
-3.30007E-001, -5.55621E-005
-3.32003E-001, -5.54425E-005
-3.34000E-001, -5.53391E-005
-3.36006E-001, -5.52581E-005
-3.38011E-001, -5.51893E-005
-3.39995E-001, -5.51307E-005
-3.42003E-001, -5.50880E-005
-3.43996E-001, -5.50594E-005
-3.45998E-001, -5.50447E-005
-3.48013E-001, -5.50430E-005
-3.50023E-001, -5.50541E-005
-3.52000E-001, -5.50763E-005
-3.53999E-001, -5.51082E-005
-3.55978E-001, -5.51533E-005
-3.57982E-001, -5.52123E-005
-3.59997E-001, -5.52786E-005
-3.62019E-001, -5.53579E-005
-3.63999E-001, -5.54415E-005
-3.66004E-001, -5.55345E-005
-3.68021E-001, -5.56269E-005
-3.70010E-001, -5.57206E-005
-3.71990E-001, -5.58168E-005
-3.74023E-001, -5.59117E-005
-3.76003E-001, -5.59991E-005
-3.77999E-001, -5.60811E-005
-3.80005E-001, -5.61615E-005
-3.81989E-001, -5.62303E-005
-3.83990E-001, -5.62912E-005
-3.86000E-001, -5.63420E-005
-3.88010E-001, -5.63810E-005
-3.90003E-001, -5.64014E-005
-3.92018E-001, -5.64066E-005
-3.93999E-001, -5.64043E-005
-3.95984E-001, -5.63810E-005
-3.98012E-001, -5.63383E-005
-4.00008E-001, -5.62867E-005
-4.01997E-001, -5.62200E-005
-4.03984E-001, -5.61413E-005
-4.05993E-001, -5.60542E-005
-4.07988E-001, -5.59623E-005
-4.09973E-001, -5.58672E-005
-4.11996E-001, -5.57712E-005
-4.13979E-001, -5.56734E-005
-4.15983E-001, -5.55832E-005
-4.17987E-001, -5.54989E-005
-4.19991E-001, -5.54175E-005
-4.21979E-001, -5.53554E-005
-4.24000E-001, -5.53007E-005
-4.25989E-001, -5.52591E-005
-4.27987E-001, -5.52372E-005
-4.30029E-001, -5.52504E-005
-4.32027E-001, -5.52597E-005
-4.34025E-001, -5.52973E-005
-4.35997E-001, -5.53582E-005
-4.38052E-001, -5.54431E-005
-4.40019E-001, -5.55459E-005
-4.42039E-001, -5.56761E-005
-4.44017E-001, -5.58308E-005
-4.46028E-001, -5.60109E-005
-4.48019E-001, -5.62078E-005
-4.50037E-001, -5.64361E-005
-4.52031E-001, -5.66842E-005
-4.54039E-001, -5.69504E-005
-4.56018E-001, -5.72488E-005
-4.58017E-001, -5.75744E-005
-4.60003E-001, -5.79122E-005
-4.62023E-001, -5.82820E-005
-4.64019E-001, -5.86777E-005
-4.66037E-001, -5.90930E-005
-4.68029E-001, -5.95331E-005
-4.70038E-001, -5.99929E-005
-4.72020E-001, -6.04695E-005
-4.74035E-001, -6.09745E-005
-4.76035E-001, -6.14978E-005
-4.78020E-001, -6.20309E-005
-4.80030E-001, -6.26019E-005
-4.82032E-001, -6.31855E-005
-4.84013E-001, -6.37929E-005
-4.86018E-001, -6.44252E-005
-4.88028E-001, -6.50698E-005
-4.90017E-001, -6.57422E-005
-4.92005E-001, -6.64225E-005
-4.94020E-001, -6.71135E-005
-4.96028E-001, -6.78455E-005
-4.98028E-001, -6.85850E-005
-5.00010E-001, -6.93469E-005
-5.02034E-001, -7.01107E-005
-5.04023E-001, -7.08859E-005
-5.06012E-001, -7.17112E-005
-5.08016E-001, -7.25058E-005
-5.10000E-001, -7.32985E-005
-5.12002E-001, -7.42046E-005
-5.14014E-001, -7.50334E-005
-5.16015E-001, -7.59222E-005
-5.18011E-001, -7.67958E-005
-5.19993E-001, -7.76444E-005
-5.21997E-001, -7.85958E-005
-5.23995E-001, -7.95051E-005
-5.26018E-001, -8.03927E-005
-5.28001E-001, -8.13052E-005
-5.29993E-001, -8.22401E-005
-5.31982E-001, -8.31896E-005
-5.33997E-001, -8.41135E-005
-5.35978E-001, -8.50367E-005
-5.37965E-001, -8.59835E-005
-5.39990E-001, -8.69498E-005
-5.41998E-001, -8.79084E-005
-5.44005E-001, -8.88346E-005
-5.46001E-001, -8.97845E-005
-5.47996E-001, -9.06968E-005
-5.49996E-001, -9.16380E-005
-5.52014E-001, -9.25783E-005
-5.54007E-001, -9.34909E-005
-5.56006E-001, -9.43994E-005
-5.58004E-001, -9.53356E-005
-5.59991E-001, -9.62598E-005
-5.61991E-001, -9.71561E-005
-5.63985E-001, -9.80142E-005
-5.65997E-001, -9.89075E-005
-5.68000E-001, -9.98047E-005
-5.69999E-001, -1.00671E-004
-5.71993E-001, -1.01494E-004
-5.73995E-001, -1.02297E-004
-5.75997E-001, -1.03141E-004
-5.78010E-001, -1.03941E-004
-5.79992E-001, -1.04720E-004
-5.81993E-001, -1.05445E-004
-5.83994E-001, -1.06159E-004
-5.85989E-001, -1.06900E-004
-5.87975E-001, -1.07608E-004
-5.90037E-001, -1.08283E-004
-5.92038E-001, -1.08890E-004
-5.94035E-001, -1.09506E-004
-5.96038E-001, -1.10088E-004
-5.98050E-001, -1.10635E-004
-6.00037E-001, -1.11113E-004
-6.02022E-001, -1.11565E-004
-6.04038E-001, -1.12027E-004
-6.06032E-001, -1.12414E-004
-6.08028E-001, -1.12732E-004
-6.10034E-001, -1.13030E-004
-6.12017E-001, -1.13291E-004
-6.14029E-001, -1.13524E-004
-6.16025E-001, -1.13684E-004
-6.18032E-001, -1.13779E-004
-6.20034E-001, -1.13863E-004
-6.22018E-001, -1.13894E-004
-6.24024E-001, -1.13840E-004
-6.26024E-001, -1.13725E-004
-6.28018E-001, -1.13586E-004
-6.30037E-001, -1.13386E-004
-6.32035E-001, -1.13132E-004
-6.34027E-001, -1.12834E-004
-6.36010E-001, -1.12464E-004
-6.38023E-001, -1.12044E-004
-6.40019E-001, -1.11572E-004
-6.42017E-001, -1.11068E-004
-6.44035E-001, -1.10512E-004
-6.46028E-001, -1.09903E-004
-6.48030E-001, -1.09256E-004
-6.50037E-001, -1.08593E-004
-6.52028E-001, -1.07886E-004
-6.54046E-001, -1.07149E-004
-6.56042E-001, -1.06397E-004
-6.58038E-001, -1.05636E-004
-6.60022E-001, -1.04857E-004
-6.62028E-001, -1.04074E-004
-6.64021E-001, -1.03283E-004
-6.66006E-001, -1.02493E-004
-6.68028E-001, -1.01715E-004
-6.70032E-001, -1.00938E-004
-6.72026E-001, -1.00164E-004
-6.74023E-001, -9.94073E-005
-6.76016E-001, -9.86638E-005
-6.78020E-001, -9.79234E-005
-6.80032E-001, -9.72099E-005
-6.82023E-001, -9.64962E-005
-6.84022E-001, -9.58089E-005
-6.86014E-001, -9.51464E-005
-6.88013E-001, -9.44927E-005
-6.90002E-001, -9.38459E-005
-6.92013E-001, -9.32196E-005
-6.94008E-001, -9.26028E-005
-6.96012E-001, -9.20073E-005
-6.98014E-001, -9.14294E-005
-7.00006E-001, -9.08698E-005
-7.02008E-001, -9.03254E-005
-7.04007E-001, -8.97894E-005
-7.06025E-001, -8.92609E-005
-7.08013E-001, -8.87511E-005
-7.10000E-001, -8.82521E-005
-7.12006E-001, -8.77711E-005
-7.13993E-001, -8.73010E-005
-7.15986E-001, -8.68347E-005
-7.17994E-001, -8.63903E-005
-7.19986E-001, -8.59516E-005
-7.22001E-001, -8.55164E-005
-7.24013E-001, -8.51090E-005
-7.26001E-001, -8.47063E-005
-7.28010E-001, -8.43088E-005
-7.29991E-001, -8.39154E-005
-7.32026E-001, -8.35303E-005
-7.34013E-001, -8.31597E-005
-7.36012E-001, -8.27911E-005
-7.38002E-001, -8.24450E-005
-7.39987E-001, -8.21123E-005
-7.41983E-001, -8.17661E-005
-7.43983E-001, -8.14297E-005
-7.46005E-001, -8.11155E-005
-7.47993E-001, -8.07961E-005
-7.49990E-001, -8.05886E-005
-7.52041E-001, -8.02900E-005
-7.54037E-001, -7.99880E-005
-7.56018E-001, -7.96838E-005
-7.58051E-001, -7.93953E-005
-7.60038E-001, -7.91249E-005
-7.62034E-001, -7.88627E-005
-7.64022E-001, -7.85998E-005
-7.66016E-001, -7.83361E-005
-7.68001E-001, -7.80716E-005
-7.70021E-001, -7.78163E-005
-7.72031E-001, -7.75700E-005
-7.74016E-001, -7.73322E-005
-7.76022E-001, -7.70973E-005
-7.78017E-001, -7.68628E-005
-7.80012E-001, -7.66270E-005
-7.82003E-001, -7.64008E-005
-7.84021E-001, -7.61796E-005
-7.86021E-001, -7.59646E-005
-7.87997E-001, -7.57546E-005
-7.90018E-001, -7.55444E-005
-7.92006E-001, -7.53313E-005
-7.94012E-001, -7.51261E-005
-7.96017E-001, -7.49280E-005
-7.98033E-001, -7.47342E-005
-8.00036E-001, -7.45345E-005
-8.02027E-001, -7.43330E-005
-8.04019E-001, -7.41429E-005
-8.06006E-001, -7.39605E-005
-8.08038E-001, -7.37830E-005
-8.10032E-001, -7.36056E-005
-8.12038E-001, -7.34333E-005
-8.14024E-001, -7.32528E-005
-8.16018E-001, -7.30750E-005
-8.18006E-001, -7.28934E-005
-8.20022E-001, -7.27218E-005
-8.22018E-001, -7.25516E-005
-8.24006E-001, -7.23809E-005
-8.26000E-001, -7.22096E-005
-8.28000E-001, -7.20482E-005
-8.29995E-001, -7.18919E-005
-8.31987E-001, -7.17443E-005
-8.34019E-001, -7.15961E-005
-8.36006E-001, -7.14483E-005
-8.37982E-001, -7.12900E-005
-8.39989E-001, -7.11297E-005
-8.41980E-001, -7.09708E-005
-8.43981E-001, -7.08152E-005
-8.45985E-001, -7.06677E-005
-8.47996E-001, -7.05229E-005
-8.49982E-001, -7.03815E-005
-8.51979E-001, -7.02402E-005
-8.53991E-001, -7.01067E-005
-8.55997E-001, -6.99726E-005
-8.57976E-001, -6.98472E-005
-8.59997E-001, -6.97157E-005
-8.61988E-001, -6.95804E-005
-8.63986E-001, -6.94400E-005
-8.65999E-001, -6.93068E-005
-8.67984E-001, -6.91759E-005
-8.69973E-001, -6.90484E-005
-8.71986E-001, -6.89215E-005
-8.73998E-001, -6.87958E-005
-8.75993E-001, -6.86740E-005
-8.77981E-001, -6.85621E-005
-8.79984E-001, -6.84558E-005
-8.81977E-001, -6.83498E-005
-8.83989E-001, -6.82391E-005
-8.86001E-001, -6.81199E-005
-8.87990E-001, -6.79984E-005
-8.89982E-001, -6.78834E-005
-8.91993E-001, -6.77752E-005
-8.93955E-001, -6.76702E-005
-8.95972E-001, -6.75656E-005
-8.97989E-001, -6.74602E-005
-8.99992E-001, -6.73534E-005
-9.01962E-001, -6.72536E-005
-9.03970E-001, -6.71657E-005
-9.05966E-001, -6.70797E-005
-9.07970E-001, -6.69936E-005
-9.09970E-001, -6.68959E-005
-9.12035E-001, -6.67949E-005
-9.14042E-001, -6.66947E-005
-9.16007E-001, -6.66058E-005
-9.18009E-001, -6.65270E-005
-9.19997E-001, -6.64454E-005
-9.21999E-001, -6.63578E-005
-9.24021E-001, -6.62682E-005
-9.26015E-001, -6.61819E-005
-9.28015E-001, -6.61048E-005
-9.30012E-001, -6.60339E-005
-9.32002E-001, -6.59704E-005
-9.34006E-001, -6.59052E-005
-9.36020E-001, -6.58311E-005
-9.38015E-001, -6.57501E-005
-9.39991E-001, -6.56779E-005
-9.41986E-001, -6.56151E-005
-9.43991E-001, -6.55566E-005
-9.45993E-001, -6.54976E-005
-9.47991E-001, -6.54293E-005
-9.50009E-001, -6.53576E-005
-9.52001E-001, -6.52932E-005
-9.54003E-001, -6.52410E-005
-9.56005E-001, -6.51962E-005
-9.57991E-001, -6.51513E-005
-9.59992E-001, -6.51041E-005
-9.62014E-001, -6.50487E-005
-9.64000E-001, -6.49930E-005
-9.66009E-001, -6.49464E-005
-9.67999E-001, -6.49042E-005
-9.69991E-001, -6.48639E-005
-9.71992E-001, -6.48224E-005
-9.73987E-001, -6.47752E-005
-9.75986E-001, -6.47271E-005
-9.77988E-001, -6.46821E-005
-9.79977E-001, -6.46494E-005
-9.81989E-001, -6.46217E-005
-9.83998E-001, -6.45931E-005
-9.85987E-001, -6.45612E-005
-9.88005E-001, -6.45263E-005
-9.89984E-001, -6.44934E-005
-9.91985E-001, -6.44629E-005
-9.93979E-001, -6.44336E-005
-9.95976E-001, -6.43969E-005
-9.97975E-001, -6.43634E-005
-9.99973E-001, -6.43334E-005
##END=$$ End of the data block
