##TITLE=Spectrum
##JCAMP-DX=5.00 $$ chemotion-converter-app (1.1.0)
##DATA TYPE=CYCLIC VOLTAMMETRY
##DATA CLASS=XYPOINTS
##ORIGIN=
##OWNER=
##XUNITS=Voltage in V
##YUNITS=Current in A
##DATE=2.7.2020
##SCAN_RATE=0.0999998
##STEP_SIZE=0.002
##CYCLES=3
##SOFTWARE_VERSION=7.8.1
##SOFTWARE=Framework
##VOLTAGE_LIMIT_END=0,00000E+000
##SERIAL=IFC1010-23191
##FIRSTX=-9.97975E-001
##LASTX=-9.99987E-001
##MINX=-0.999987
##MAXX=0.400035
##MINY=-0.000114175
##MAXY=6.6955e-05
##NPOINTS=1400
##FIRSTY=-6.40463E-005
##XUNITS=Voltage in V
##YUNITS=Current in A
##XYPOINTS=(XY..XY)
-9.97975E-001, -6.40463E-005
-9.95981E-001, -6.38135E-005
-9.94001E-001, -6.36093E-005
-9.91995E-001, -6.34151E-005
-9.89991E-001, -6.32281E-005
-9.88004E-001, -6.30508E-005
-9.85988E-001, -6.28849E-005
-9.83988E-001, -6.27261E-005
-9.81990E-001, -6.25701E-005
-9.79984E-001, -6.24124E-005
-9.78001E-001, -6.22591E-005
-9.75983E-001, -6.21147E-005
-9.73982E-001, -6.19804E-005
-9.71971E-001, -6.18635E-005
-9.69981E-001, -6.17431E-005
-9.67997E-001, -6.16122E-005
-9.65994E-001, -6.14815E-005
-9.63999E-001, -6.13606E-005
-9.62018E-001, -6.12480E-005
-9.59986E-001, -6.11489E-005
-9.58000E-001, -6.10417E-005
-9.56019E-001, -6.09250E-005
-9.54012E-001, -6.07993E-005
-9.52009E-001, -6.06814E-005
-9.50013E-001, -6.05770E-005
-9.48001E-001, -6.04925E-005
-9.46017E-001, -6.04131E-005
-9.44015E-001, -6.03223E-005
-9.42005E-001, -6.02227E-005
-9.40019E-001, -6.01221E-005
-9.38025E-001, -6.00340E-005
-9.36033E-001, -5.99486E-005
-9.33995E-001, -5.98650E-005
-9.32006E-001, -5.97820E-005
-9.30010E-001, -5.96781E-005
-9.28007E-001, -5.95807E-005
-9.26021E-001, -5.94997E-005
-9.24028E-001, -5.94344E-005
-9.22010E-001, -5.93613E-005
-9.20009E-001, -5.92874E-005
-9.18015E-001, -5.92150E-005
-9.16008E-001, -5.91375E-005
-9.14041E-001, -5.90517E-005
-9.12037E-001, -5.89688E-005
-9.09967E-001, -5.89156E-005
-9.07974E-001, -5.88418E-005
-9.05986E-001, -5.87665E-005
-9.03972E-001, -5.86809E-005
-9.01972E-001, -5.86269E-005
-8.99987E-001, -5.85713E-005
-8.97976E-001, -5.84874E-005
-8.95967E-001, -5.84170E-005
-8.93973E-001, -5.83769E-005
-8.91977E-001, -5.83103E-005
-8.89969E-001, -5.82334E-005
-8.87986E-001, -5.81652E-005
-8.85993E-001, -5.81264E-005
-8.83979E-001, -5.80771E-005
-8.81989E-001, -5.79972E-005
-8.79991E-001, -5.79120E-005
-8.77978E-001, -5.78591E-005
-8.76005E-001, -5.78202E-005
-8.74008E-001, -5.77589E-005
-8.71997E-001, -5.76903E-005
-8.69983E-001, -5.76441E-005
-8.67994E-001, -5.76099E-005
-8.66006E-001, -5.75508E-005
-8.63993E-001, -5.74741E-005
-8.61987E-001, -5.74115E-005
-8.60006E-001, -5.73752E-005
-8.57993E-001, -5.73295E-005
-8.55998E-001, -5.72576E-005
-8.53995E-001, -5.71926E-005
-8.51987E-001, -5.71476E-005
-8.50006E-001, -5.71139E-005
-8.48006E-001, -5.70645E-005
-8.45976E-001, -5.70045E-005
-8.43984E-001, -5.69524E-005
-8.41987E-001, -5.69172E-005
-8.39985E-001, -5.68685E-005
-8.37981E-001, -5.67981E-005
-8.35997E-001, -5.67345E-005
-8.33997E-001, -5.67000E-005
-8.31981E-001, -5.66698E-005
-8.29990E-001, -5.66145E-005
-8.27986E-001, -5.65556E-005
-8.25998E-001, -5.65124E-005
-8.24002E-001, -5.64821E-005
-8.22002E-001, -5.64286E-005
-8.20004E-001, -5.63629E-005
-8.17998E-001, -5.63098E-005
-8.16019E-001, -5.62764E-005
-8.14010E-001, -5.62381E-005
-8.12020E-001, -5.61896E-005
-8.10022E-001, -5.61407E-005
-8.08023E-001, -5.61043E-005
-8.06015E-001, -5.60737E-005
-8.04011E-001, -5.60300E-005
-8.02019E-001, -5.59746E-005
-8.00026E-001, -5.59243E-005
-7.98022E-001, -5.58744E-005
-7.96014E-001, -5.58200E-005
-7.94013E-001, -5.57662E-005
-7.92014E-001, -5.57225E-005
-7.90021E-001, -5.56989E-005
-7.88026E-001, -5.56742E-005
-7.86038E-001, -5.56369E-005
-7.84040E-001, -5.55911E-005
-7.82026E-001, -5.55541E-005
-7.80034E-001, -5.55195E-005
-7.78024E-001, -5.54788E-005
-7.76042E-001, -5.54218E-005
-7.74037E-001, -5.53587E-005
-7.72054E-001, -5.53093E-005
-7.70026E-001, -5.52662E-005
-7.68016E-001, -5.52337E-005
-7.66019E-001, -5.52062E-005
-7.64029E-001, -5.51841E-005
-7.62031E-001, -5.51565E-005
-7.60032E-001, -5.51145E-005
-7.58037E-001, -5.50693E-005
-7.56018E-001, -5.50292E-005
-7.54028E-001, -5.49978E-005
-7.52033E-001, -5.49544E-005
-7.49987E-001, -5.48974E-005
-7.47985E-001, -5.48369E-005
-7.45984E-001, -5.47907E-005
-7.43981E-001, -5.47550E-005
-7.41976E-001, -5.47317E-005
-7.39980E-001, -5.47149E-005
-7.38002E-001, -5.46902E-005
-7.35994E-001, -5.46530E-005
-7.33988E-001, -5.46046E-005
-7.31992E-001, -5.45582E-005
-7.29983E-001, -5.45165E-005
-7.28000E-001, -5.44766E-005
-7.25986E-001, -5.44270E-005
-7.23996E-001, -5.43774E-005
-7.21990E-001, -5.43265E-005
-7.19980E-001, -5.42790E-005
-7.17984E-001, -5.42463E-005
-7.15981E-001, -5.42213E-005
-7.13987E-001, -5.41951E-005
-7.12002E-001, -5.41529E-005
-7.10000E-001, -5.41031E-005
-7.08014E-001, -5.40492E-005
-7.06017E-001, -5.39991E-005
-7.04001E-001, -5.39416E-005
-7.02000E-001, -5.38841E-005
-7.00005E-001, -5.38288E-005
-6.98006E-001, -5.37767E-005
-6.96014E-001, -5.37245E-005
-6.94002E-001, -5.36756E-005
-6.91993E-001, -5.36238E-005
-6.90003E-001, -5.35686E-005
-6.88015E-001, -5.35121E-005
-6.86012E-001, -5.34482E-005
-6.84003E-001, -5.33750E-005
-6.82006E-001, -5.33019E-005
-6.80046E-001, -5.32285E-005
-6.78029E-001, -5.31510E-005
-6.76017E-001, -5.30621E-005
-6.74023E-001, -5.29703E-005
-6.72017E-001, -5.28938E-005
-6.70024E-001, -5.28137E-005
-6.68014E-001, -5.27250E-005
-6.65999E-001, -5.26276E-005
-6.64001E-001, -5.25194E-005
-6.62014E-001, -5.24080E-005
-6.60020E-001, -5.22914E-005
-6.58022E-001, -5.21676E-005
-6.56024E-001, -5.20373E-005
-6.54037E-001, -5.19017E-005
-6.52016E-001, -5.17605E-005
-6.50024E-001, -5.16093E-005
-6.48016E-001, -5.14512E-005
-6.46016E-001, -5.12907E-005
-6.44019E-001, -5.11210E-005
-6.42010E-001, -5.09416E-005
-6.40008E-001, -5.07431E-005
-6.38007E-001, -5.05370E-005
-6.36017E-001, -5.03169E-005
-6.34029E-001, -5.00871E-005
-6.32031E-001, -4.98507E-005
-6.30036E-001, -4.95997E-005
-6.28019E-001, -4.93347E-005
-6.26022E-001, -4.90567E-005
-6.24024E-001, -4.87642E-005
-6.22020E-001, -4.84585E-005
-6.20025E-001, -4.81351E-005
-6.18035E-001, -4.77930E-005
-6.16029E-001, -4.74484E-005
-6.14029E-001, -4.70776E-005
-6.12023E-001, -4.66810E-005
-6.10038E-001, -4.62793E-005
-6.08036E-001, -4.58614E-005
-6.06037E-001, -4.54235E-005
-6.04053E-001, -4.49682E-005
-6.02032E-001, -4.44912E-005
-6.00027E-001, -4.39911E-005
-5.98039E-001, -4.34803E-005
-5.96039E-001, -4.29466E-005
-5.94037E-001, -4.23977E-005
-5.92041E-001, -4.18299E-005
-5.90036E-001, -4.12483E-005
-5.87974E-001, -4.06020E-005
-5.85980E-001, -3.99738E-005
-5.83997E-001, -3.93350E-005
-5.81983E-001, -3.86714E-005
-5.79985E-001, -3.79887E-005
-5.78007E-001, -3.72785E-005
-5.76000E-001, -3.65545E-005
-5.73994E-001, -3.58097E-005
-5.72008E-001, -3.50513E-005
-5.69999E-001, -3.42836E-005
-5.68002E-001, -3.34902E-005
-5.65982E-001, -3.26797E-005
-5.63973E-001, -3.18488E-005
-5.61981E-001, -3.10128E-005
-5.59991E-001, -3.01588E-005
-5.57992E-001, -2.92832E-005
-5.55995E-001, -2.83960E-005
-5.53995E-001, -2.74906E-005
-5.52015E-001, -2.65692E-005
-5.49995E-001, -2.56392E-005
-5.47992E-001, -2.46950E-005
-5.45998E-001, -2.37406E-005
-5.43994E-001, -2.27753E-005
-5.42003E-001, -2.17946E-005
-5.39998E-001, -2.08038E-005
-5.37974E-001, -1.97995E-005
-5.35985E-001, -1.87900E-005
-5.34003E-001, -1.77818E-005
-5.31986E-001, -1.67604E-005
-5.29993E-001, -1.57304E-005
-5.28007E-001, -1.46875E-005
-5.26020E-001, -1.36334E-005
-5.23992E-001, -1.25833E-005
-5.22010E-001, -1.15282E-005
-5.20011E-001, -1.04635E-005
-5.18007E-001, -9.39981E-006
-5.16004E-001, -8.32888E-006
-5.14015E-001, -7.26074E-006
-5.11990E-001, -6.18971E-006
-5.09983E-001, -5.12150E-006
-5.08008E-001, -4.05988E-006
-5.06007E-001, -2.99181E-006
-5.04026E-001, -1.94081E-006
-5.02028E-001, -8.63864E-007
-5.00010E-001, 2.02298E-007
-4.98008E-001, 1.09462E-006
-4.96045E-001, 2.30716E-006
-4.94040E-001, 3.35116E-006
-4.92037E-001, 4.39216E-006
-4.90051E-001, 5.41777E-006
-4.88043E-001, 6.43969E-006
-4.86025E-001, 7.44835E-006
-4.84022E-001, 8.45454E-006
-4.82037E-001, 9.45571E-006
-4.80043E-001, 1.04609E-005
-4.78045E-001, 1.14172E-005
-4.76062E-001, 1.23557E-005
-4.74031E-001, 1.32833E-005
-4.72034E-001, 1.41953E-005
-4.70049E-001, 1.50883E-005
-4.68046E-001, 1.59644E-005
-4.66058E-001, 1.68120E-005
-4.64040E-001, 1.76411E-005
-4.62028E-001, 1.84457E-005
-4.60017E-001, 1.92156E-005
-4.58032E-001, 1.99567E-005
-4.56038E-001, 2.06716E-005
-4.54035E-001, 2.13576E-005
-4.52036E-001, 2.20039E-005
-4.50055E-001, 2.26144E-005
-4.48024E-001, 2.31891E-005
-4.46043E-001, 2.37286E-005
-4.44021E-001, 2.42354E-005
-4.42037E-001, 2.46911E-005
-4.40044E-001, 2.51024E-005
-4.38047E-001, 2.54579E-005
-4.36011E-001, 2.57695E-005
-4.34023E-001, 2.60325E-005
-4.32037E-001, 2.62416E-005
-4.30035E-001, 2.63985E-005
-4.27985E-001, 2.65375E-005
-4.25995E-001, 2.65597E-005
-4.24005E-001, 2.65289E-005
-4.21979E-001, 2.64416E-005
-4.19982E-001, 2.63025E-005
-4.17977E-001, 2.61010E-005
-4.15986E-001, 2.58362E-005
-4.13983E-001, 2.55138E-005
-4.11997E-001, 2.51240E-005
-4.09997E-001, 2.46765E-005
-4.08001E-001, 2.41715E-005
-4.05997E-001, 2.36127E-005
-4.03983E-001, 2.29959E-005
-4.01998E-001, 2.23429E-005
-4.00015E-001, 2.16526E-005
-3.98014E-001, 2.09429E-005
-3.95989E-001, 2.02206E-005
-3.94004E-001, 1.94703E-005
-3.92006E-001, 1.87031E-005
-3.90003E-001, 1.79204E-005
-3.88002E-001, 1.71350E-005
-3.86006E-001, 1.63442E-005
-3.83982E-001, 1.55567E-005
-3.81987E-001, 1.47728E-005
-3.79989E-001, 1.40073E-005
-3.77991E-001, 1.32564E-005
-3.76004E-001, 1.25278E-005
-3.74007E-001, 1.18212E-005
-3.71981E-001, 1.11417E-005
-3.69998E-001, 1.04809E-005
-3.68006E-001, 9.83332E-006
-3.66010E-001, 9.20571E-006
-3.64007E-001, 8.59567E-006
-3.62021E-001, 8.00579E-006
-3.59996E-001, 7.42285E-006
-3.58004E-001, 6.87270E-006
-3.55989E-001, 6.34337E-006
-3.54010E-001, 5.83278E-006
-3.52003E-001, 5.33948E-006
-3.50026E-001, 4.85867E-006
-3.48011E-001, 4.40327E-006
-3.46011E-001, 3.96849E-006
-3.44005E-001, 3.55187E-006
-3.42005E-001, 3.14659E-006
-3.40000E-001, 2.75358E-006
-3.38017E-001, 2.36758E-006
-3.36015E-001, 1.99329E-006
-3.34018E-001, 1.63095E-006
-3.32005E-001, 1.28888E-006
-3.30012E-001, 9.60742E-007
-3.28021E-001, 6.46883E-007
-3.26008E-001, 3.58378E-007
-3.24019E-001, 6.43416E-008
-3.22014E-001, -2.20302E-007
-3.19991E-001, -4.91210E-007
-3.17999E-001, -7.52020E-007
-3.16003E-001, -1.00619E-006
-3.14017E-001, -1.26891E-006
-3.12032E-001, -1.50859E-006
-3.10026E-001, -1.73765E-006
-3.07998E-001, -1.95841E-006
-3.06002E-001, -2.17028E-006
-3.04012E-001, -2.37123E-006
-3.02033E-001, -2.56846E-006
-3.00026E-001, -2.75991E-006
-2.98032E-001, -2.94066E-006
-2.96037E-001, -3.11532E-006
-2.94021E-001, -3.28252E-006
-2.92022E-001, -3.44359E-006
-2.90026E-001, -3.59505E-006
-2.88023E-001, -3.74274E-006
-2.86034E-001, -3.88389E-006
-2.84019E-001, -4.01981E-006
-2.82016E-001, -4.14816E-006
-2.80009E-001, -4.26385E-006
-2.78022E-001, -4.37045E-006
-2.76025E-001, -4.46898E-006
-2.74051E-001, -4.56568E-006
-2.72054E-001, -4.65880E-006
-2.70051E-001, -4.74917E-006
-2.67983E-001, -4.82409E-006
-2.65981E-001, -4.90126E-006
-2.63994E-001, -4.97776E-006
-2.61996E-001, -5.05338E-006
-2.59989E-001, -5.11693E-006
-2.57980E-001, -5.17565E-006
-2.55969E-001, -5.23177E-006
-2.53965E-001, -5.28215E-006
-2.51986E-001, -5.33192E-006
-2.49975E-001, -5.36700E-006
-2.47984E-001, -5.41443E-006
-2.45985E-001, -5.46198E-006
-2.43984E-001, -5.49735E-006
-2.41974E-001, -5.53840E-006
-2.39976E-001, -5.57114E-006
-2.37979E-001, -5.59542E-006
-2.35979E-001, -5.61401E-006
-2.33972E-001, -5.63155E-006
-2.31974E-001, -5.65545E-006
-2.29970E-001, -5.67069E-006
-2.27965E-001, -5.66974E-006
-2.25978E-001, -5.67042E-006
-2.23977E-001, -5.66274E-006
-2.21982E-001, -5.64561E-006
-2.19990E-001, -5.62500E-006
-2.17976E-001, -5.59304E-006
-2.15975E-001, -5.55937E-006
-2.13986E-001, -5.51617E-006
-2.11977E-001, -5.45920E-006
-2.09994E-001, -5.38114E-006
-2.07996E-001, -5.29541E-006
-2.05989E-001, -5.21118E-006
-2.03998E-001, -5.10668E-006
-2.01992E-001, -4.97408E-006
-2.00009E-001, -4.82798E-006
-1.98009E-001, -4.66879E-006
-1.96014E-001, -4.49318E-006
-1.94016E-001, -4.30168E-006
-1.91991E-001, -4.08690E-006
-1.89990E-001, -3.85481E-006
-1.88003E-001, -3.60455E-006
-1.86001E-001, -3.33750E-006
-1.84017E-001, -3.03578E-006
-1.82010E-001, -2.71471E-006
-1.79986E-001, -2.38113E-006
-1.78003E-001, -2.02692E-006
-1.75999E-001, -1.63692E-006
-1.74015E-001, -1.22191E-006
-1.72009E-001, -7.90142E-007
-1.69975E-001, -2.81420E-007
-1.67983E-001, 1.94785E-007
-1.65968E-001, 6.91389E-007
-1.63994E-001, 1.09071E-006
-1.62008E-001, 1.71395E-006
-1.60009E-001, 2.28513E-006
-1.58009E-001, 2.88332E-006
-1.56025E-001, 3.50137E-006
-1.53997E-001, 4.14141E-006
-1.51996E-001, 4.80334E-006
-1.49997E-001, 5.49077E-006
-1.48022E-001, 6.20063E-006
-1.46023E-001, 6.92865E-006
-1.44032E-001, 7.67329E-006
-1.42030E-001, 8.44249E-006
-1.40010E-001, 9.22897E-006
-1.38006E-001, 1.00542E-005
-1.36013E-001, 1.08875E-005
-1.34016E-001, 1.17343E-005
-1.32021E-001, 1.26009E-005
-1.30022E-001, 1.34755E-005
-1.28011E-001, 1.43708E-005
-1.26013E-001, 1.52815E-005
-1.24008E-001, 1.62123E-005
-1.22021E-001, 1.71575E-005
-1.20038E-001, 1.81020E-005
-1.18029E-001, 1.90679E-005
-1.16050E-001, 2.00474E-005
-1.14025E-001, 2.10442E-005
-1.12020E-001, 2.20515E-005
-1.10034E-001, 2.30616E-005
-1.08034E-001, 2.40842E-005
-1.05988E-001, 2.51772E-005
-1.03979E-001, 2.62153E-005
-1.01958E-001, 2.72577E-005
-9.99629E-002, 2.83085E-005
-9.79573E-002, 2.93661E-005
-9.59634E-002, 3.04320E-005
-9.39920E-002, 3.14813E-005
-9.20014E-002, 3.25460E-005
-8.99833E-002, 3.36218E-005
-8.79868E-002, 3.47055E-005
-8.59762E-002, 3.57828E-005
-8.39965E-002, 3.68644E-005
-8.19971E-002, 3.79397E-005
-8.00045E-002, 3.90075E-005
-7.79826E-002, 4.00862E-005
-7.59707E-002, 4.11586E-005
-7.39856E-002, 4.22202E-005
-7.19816E-002, 4.32735E-005
-6.99881E-002, 4.43179E-005
-6.80000E-002, 4.53605E-005
-6.59898E-002, 4.64017E-005
-6.39884E-002, 4.74172E-005
-6.20016E-002, 4.84331E-005
-6.00106E-002, 4.94526E-005
-5.80154E-002, 5.04395E-005
-5.60090E-002, 5.14079E-005
-5.40184E-002, 5.23656E-005
-5.20019E-002, 5.33151E-005
-4.99922E-002, 5.42456E-005
-4.80012E-002, 5.51443E-005
-4.60089E-002, 5.60237E-005
-4.40141E-002, 5.68847E-005
-4.20148E-002, 5.77331E-005
-4.00179E-002, 5.85506E-005
-3.80036E-002, 5.93361E-005
-3.59930E-002, 6.00988E-005
-3.40036E-002, 6.08333E-005
-3.19960E-002, 6.15415E-005
-3.00129E-002, 6.22056E-005
-2.80244E-002, 6.28346E-005
-2.59825E-002, 6.34337E-005
-2.39990E-002, 6.39838E-005
-2.19971E-002, 6.44933E-005
-2.00232E-002, 6.49625E-005
-1.80126E-002, 6.53880E-005
-1.60275E-002, 6.57709E-005
-1.40189E-002, 6.61073E-005
-1.20146E-002, 6.63895E-005
-9.99981E-003, 6.66121E-005
-8.01715E-003, 6.67848E-005
-6.00904E-003, 6.68974E-005
-4.03680E-003, 6.69550E-005
-2.00284E-003, 6.69487E-005
7.76385E-006, 6.68809E-005
1.99543E-003, 6.67526E-005
3.99186E-003, 6.65492E-005
5.98787E-003, 6.62825E-005
7.99305E-003, 6.59630E-005
9.98948E-003, 6.55793E-005
1.20155E-002, 6.51314E-005
1.40019E-002, 6.46161E-005
1.59921E-002, 6.40444E-005
1.79881E-002, 6.34187E-005
1.99962E-002, 6.27375E-005
2.19972E-002, 6.20053E-005
2.39932E-002, 6.12421E-005
2.60047E-002, 6.04316E-005
2.80024E-002, 5.95900E-005
2.99925E-002, 5.87238E-005
3.19936E-002, 5.78422E-005
3.39871E-002, 5.69541E-005
3.59864E-002, 5.60578E-005
3.79853E-002, 5.51544E-005
4.00005E-002, 5.42599E-005
4.19853E-002, 5.33682E-005
4.39888E-002, 5.24917E-005
4.59856E-002, 5.16250E-005
4.79975E-002, 5.07745E-005
4.99993E-002, 4.99477E-005
5.20045E-002, 4.91347E-005
5.40472E-002, 4.83563E-005
5.60479E-002, 4.75884E-005
5.80380E-002, 4.68450E-005
6.00345E-002, 4.61226E-005
6.20355E-002, 4.54213E-005
6.40582E-002, 4.47425E-005
6.60458E-002, 4.40849E-005
6.80460E-002, 4.34430E-005
7.00441E-002, 4.28227E-005
7.20339E-002, 4.22226E-005
7.40382E-002, 4.16447E-005
7.60576E-002, 4.10805E-005
7.80448E-002, 4.05376E-005
8.00467E-002, 4.00123E-005
8.20419E-002, 3.95021E-005
8.40416E-002, 3.90081E-005
8.60260E-002, 3.85322E-005
8.80224E-002, 3.80705E-005
9.00359E-002, 3.76208E-005
9.20336E-002, 3.71853E-005
9.40279E-002, 3.67645E-005
9.60218E-002, 3.63537E-005
9.80237E-002, 3.59608E-005
1.00036E-001, 3.55835E-005
1.02039E-001, 3.52160E-005
1.04042E-001, 3.48612E-005
1.06039E-001, 3.45176E-005
1.08030E-001, 3.41881E-005
1.10033E-001, 3.38706E-005
1.12018E-001, 3.35654E-005
1.14010E-001, 3.32732E-005
1.16040E-001, 3.29896E-005
1.18027E-001, 3.27176E-005
1.20026E-001, 3.24550E-005
1.22025E-001, 3.22048E-005
1.24012E-001, 3.19655E-005
1.26024E-001, 3.17396E-005
1.28037E-001, 3.15230E-005
1.30017E-001, 3.13176E-005
1.32036E-001, 3.11211E-005
1.34020E-001, 3.09372E-005
1.36024E-001, 3.07605E-005
1.38016E-001, 3.05936E-005
1.40017E-001, 3.04322E-005
1.42016E-001, 3.02755E-005
1.44000E-001, 3.01283E-005
1.45995E-001, 2.99843E-005
1.47997E-001, 2.98396E-005
1.50004E-001, 2.97010E-005
1.52010E-001, 2.95605E-005
1.54032E-001, 2.94186E-005
1.56006E-001, 2.92748E-005
1.58022E-001, 2.91219E-005
1.60014E-001, 2.89649E-005
1.62018E-001, 2.88008E-005
1.64003E-001, 2.86304E-005
1.66019E-001, 2.84498E-005
1.68008E-001, 2.82610E-005
1.70006E-001, 2.80675E-005
1.72004E-001, 2.78663E-005
1.74008E-001, 2.76588E-005
1.75993E-001, 2.74458E-005
1.77999E-001, 2.72348E-005
1.80018E-001, 2.70203E-005
1.82011E-001, 2.68035E-005
1.84008E-001, 2.65861E-005
1.86001E-001, 2.63685E-005
1.87991E-001, 2.61547E-005
1.89992E-001, 2.59428E-005
1.92009E-001, 2.57292E-005
1.94009E-001, 2.55173E-005
1.96004E-001, 2.53066E-005
1.98003E-001, 2.50991E-005
2.00001E-001, 2.48963E-005
2.02013E-001, 2.46990E-005
2.04002E-001, 2.45060E-005
2.06016E-001, 2.43180E-005
2.08003E-001, 2.41301E-005
2.09998E-001, 2.39469E-005
2.12001E-001, 2.37644E-005
2.14042E-001, 2.35897E-005
2.16041E-001, 2.34105E-005
2.18051E-001, 2.32359E-005
2.20058E-001, 2.30618E-005
2.22039E-001, 2.28924E-005
2.24048E-001, 2.27287E-005
2.26040E-001, 2.25680E-005
2.28055E-001, 2.24107E-005
2.30061E-001, 2.22551E-005
2.32062E-001, 2.21027E-005
2.34048E-001, 2.19510E-005
2.36042E-001, 2.18044E-005
2.38047E-001, 2.16571E-005
2.40047E-001, 2.15104E-005
2.42040E-001, 2.13676E-005
2.44051E-001, 2.12211E-005
2.46052E-001, 2.10825E-005
2.48039E-001, 2.09476E-005
2.50042E-001, 2.08127E-005
2.52031E-001, 2.06796E-005
2.54060E-001, 2.05503E-005
2.56054E-001, 2.04227E-005
2.58054E-001, 2.02978E-005
2.60045E-001, 2.01732E-005
2.62052E-001, 2.00508E-005
2.64055E-001, 1.99298E-005
2.66040E-001, 1.98081E-005
2.68034E-001, 1.96886E-005
2.70050E-001, 1.95706E-005
2.72046E-001, 1.94573E-005
2.74037E-001, 1.93465E-005
2.76028E-001, 1.92375E-005
2.78040E-001, 1.91322E-005
2.80052E-001, 1.90271E-005
2.82062E-001, 1.89241E-005
2.84045E-001, 1.88218E-005
2.86039E-001, 1.87217E-005
2.88045E-001, 1.86217E-005
2.90036E-001, 1.85246E-005
2.92027E-001, 1.84297E-005
2.94048E-001, 1.83345E-005
2.96039E-001, 1.82435E-005
2.98023E-001, 1.81556E-005
3.00027E-001, 1.80682E-005
3.02034E-001, 1.79840E-005
3.04025E-001, 1.79011E-005
3.06046E-001, 1.78178E-005
3.08044E-001, 1.77344E-005
3.10049E-001, 1.76547E-005
3.12031E-001, 1.75770E-005
3.14028E-001, 1.74969E-005
3.16003E-001, 1.74159E-005
3.17996E-001, 1.73409E-005
3.20023E-001, 1.72659E-005
3.22001E-001, 1.71920E-005
3.24000E-001, 1.71210E-005
3.26008E-001, 1.70461E-005
3.28003E-001, 1.69750E-005
3.30007E-001, 1.69025E-005
3.31998E-001, 1.68342E-005
3.34013E-001, 1.67617E-005
3.36012E-001, 1.66916E-005
3.37998E-001, 1.66188E-005
3.39991E-001, 1.65466E-005
3.41999E-001, 1.64722E-005
3.43989E-001, 1.64005E-005
3.45999E-001, 1.63276E-005
3.48007E-001, 1.62539E-005
3.50001E-001, 1.61803E-005
3.52007E-001, 1.61077E-005
3.54000E-001, 1.60322E-005
3.56004E-001, 1.59574E-005
3.58019E-001, 1.58827E-005
3.60009E-001, 1.58072E-005
3.62017E-001, 1.57290E-005
3.64005E-001, 1.56501E-005
3.66003E-001, 1.55708E-005
3.67992E-001, 1.54876E-005
3.69998E-001, 1.54061E-005
3.72025E-001, 1.53256E-005
3.74059E-001, 1.52500E-005
3.76054E-001, 1.51709E-005
3.78049E-001, 1.50901E-005
3.80038E-001, 1.50109E-005
3.82048E-001, 1.49289E-005
3.84070E-001, 1.48455E-005
3.86059E-001, 1.47646E-005
3.88052E-001, 1.46816E-005
3.90054E-001, 1.45970E-005
3.92041E-001, 1.45147E-005
3.94045E-001, 1.44337E-005
3.96023E-001, 1.43507E-005
3.98050E-001, 1.42709E-005
4.00035E-001, 1.41916E-005
3.98041E-001, 1.38225E-005
3.96020E-001, 1.35568E-005
3.94045E-001, 1.33284E-005
3.92053E-001, 1.31224E-005
3.90057E-001, 1.29316E-005
3.88057E-001, 1.27557E-005
3.86066E-001, 1.25872E-005
3.84081E-001, 1.24246E-005
3.82052E-001, 1.22698E-005
3.80060E-001, 1.21213E-005
3.78062E-001, 1.19776E-005
3.76067E-001, 1.18368E-005
3.74072E-001, 1.16999E-005
3.72013E-001, 1.15647E-005
3.69987E-001, 1.14358E-005
3.67999E-001, 1.13098E-005
3.66001E-001, 1.11851E-005
3.64015E-001, 1.10587E-005
3.62012E-001, 1.09372E-005
3.60020E-001, 1.08166E-005
3.58012E-001, 1.06987E-005
3.55993E-001, 1.05802E-005
3.53998E-001, 1.04660E-005
3.52006E-001, 1.03542E-005
3.49998E-001, 1.02433E-005
3.47998E-001, 1.01339E-005
3.46004E-001, 1.00255E-005
3.44005E-001, 9.92016E-006
3.42015E-001, 9.81230E-006
3.40015E-001, 9.70706E-006
3.38004E-001, 9.60346E-006
3.36014E-001, 9.50265E-006
3.34022E-001, 9.40046E-006
3.32006E-001, 9.30006E-006
3.30003E-001, 9.20182E-006
3.28006E-001, 9.10479E-006
3.25992E-001, 9.01014E-006
3.23989E-001, 8.91681E-006
3.22007E-001, 8.82566E-006
3.20010E-001, 8.73432E-006
3.17995E-001, 8.64338E-006
3.15990E-001, 8.55462E-006
3.14021E-001, 8.46739E-006
3.12015E-001, 8.37911E-006
3.10027E-001, 8.29317E-006
3.08028E-001, 8.20920E-006
3.06029E-001, 8.12692E-006
3.04011E-001, 8.02977E-006
3.02024E-001, 7.94941E-006
3.00012E-001, 7.87049E-006
2.98021E-001, 7.79322E-006
2.96028E-001, 7.71814E-006
2.94043E-001, 7.64058E-006
2.92020E-001, 7.56647E-006
2.90020E-001, 7.49208E-006
2.88036E-001, 7.41929E-006
2.86031E-001, 7.34810E-006
2.84048E-001, 7.27938E-006
2.82050E-001, 7.20900E-006
2.80046E-001, 7.14247E-006
2.78040E-001, 7.07315E-006
2.76033E-001, 7.00849E-006
2.74038E-001, 6.94242E-006
2.72037E-001, 6.87631E-006
2.70042E-001, 6.81104E-006
2.68026E-001, 6.74658E-006
2.66038E-001, 6.68565E-006
2.64047E-001, 6.62323E-006
2.62044E-001, 6.56035E-006
2.60040E-001, 6.49989E-006
2.58050E-001, 6.43994E-006
2.56053E-001, 6.38206E-006
2.54052E-001, 6.32125E-006
2.52027E-001, 6.26377E-006
2.50032E-001, 6.20407E-006
2.48031E-001, 6.14505E-006
2.46037E-001, 6.08825E-006
2.44036E-001, 6.03115E-006
2.42034E-001, 5.97364E-006
2.40043E-001, 5.91749E-006
2.38036E-001, 5.86209E-006
2.36036E-001, 5.80706E-006
2.34046E-001, 5.75171E-006
2.32063E-001, 5.69908E-006
2.30064E-001, 5.64594E-006
2.28065E-001, 5.59124E-006
2.26046E-001, 5.53793E-006
2.24041E-001, 5.48436E-006
2.22047E-001, 5.43315E-006
2.20051E-001, 5.38058E-006
2.18047E-001, 5.32969E-006
2.16037E-001, 5.27874E-006
2.14046E-001, 5.22868E-006
2.11991E-001, 5.17538E-006
2.09978E-001, 5.12759E-006
2.07999E-001, 5.07881E-006
2.06013E-001, 5.03035E-006
2.03993E-001, 4.98247E-006
2.02011E-001, 4.93370E-006
1.99986E-001, 4.88628E-006
1.97995E-001, 4.83893E-006
1.95990E-001, 4.79109E-006
1.93994E-001, 4.74317E-006
1.92015E-001, 4.69557E-006
1.89980E-001, 4.64761E-006
1.87992E-001, 4.59928E-006
1.85999E-001, 4.55119E-006
1.84014E-001, 4.50166E-006
1.82005E-001, 4.45151E-006
1.80022E-001, 4.40273E-006
1.78007E-001, 4.35213E-006
1.75998E-001, 4.29967E-006
1.74008E-001, 4.24718E-006
1.71995E-001, 4.19128E-006
1.70006E-001, 4.13664E-006
1.68008E-001, 4.07926E-006
1.66025E-001, 4.02151E-006
1.63992E-001, 3.96258E-006
1.61998E-001, 3.90116E-006
1.60003E-001, 3.83962E-006
1.58019E-001, 3.77588E-006
1.56019E-001, 3.71242E-006
1.54034E-001, 3.64706E-006
1.52014E-001, 3.58264E-006
1.50012E-001, 3.51690E-006
1.47999E-001, 3.45149E-006
1.46003E-001, 3.38748E-006
1.44012E-001, 3.32506E-006
1.42027E-001, 3.26276E-006
1.40015E-001, 3.20280E-006
1.38022E-001, 3.14497E-006
1.36028E-001, 3.09104E-006
1.34018E-001, 3.04164E-006
1.32022E-001, 2.99258E-006
1.30027E-001, 2.94951E-006
1.28044E-001, 2.90912E-006
1.26034E-001, 2.87416E-006
1.24031E-001, 2.84139E-006
1.22018E-001, 2.81286E-006
1.20019E-001, 2.78813E-006
1.18023E-001, 2.76288E-006
1.16019E-001, 2.74350E-006
1.14002E-001, 2.72494E-006
1.12008E-001, 2.70839E-006
1.10019E-001, 2.69309E-006
1.08029E-001, 2.67792E-006
1.06029E-001, 2.66519E-006
1.04036E-001, 2.64982E-006
1.02041E-001, 2.63582E-006
1.00041E-001, 2.62241E-006
9.80200E-002, 2.60594E-006
9.60364E-002, 2.58883E-006
9.40342E-002, 2.57373E-006
9.20290E-002, 2.55456E-006
9.00363E-002, 2.53582E-006
8.80190E-002, 2.51581E-006
8.60168E-002, 2.49329E-006
8.40241E-002, 2.46928E-006
8.20318E-002, 2.44608E-006
8.00258E-002, 2.41876E-006
7.80336E-002, 2.38893E-006
7.60488E-002, 2.35890E-006
7.40370E-002, 2.32634E-006
7.20205E-002, 2.29152E-006
7.00466E-002, 2.25409E-006
6.80581E-002, 2.21462E-006
6.60408E-002, 2.17086E-006
6.40461E-002, 2.12542E-006
6.20259E-002, 2.07802E-006
6.00319E-002, 2.02645E-006
5.80480E-002, 1.97213E-006
5.60491E-002, 1.91481E-006
5.40502E-002, 1.85262E-006
5.20120E-002, 1.78239E-006
5.00010E-002, 1.71424E-006
4.80063E-002, 1.63816E-006
4.59915E-002, 1.55945E-006
4.39955E-002, 1.47629E-006
4.19865E-002, 1.38558E-006
4.00047E-002, 1.29049E-006
3.79962E-002, 1.18819E-006
3.59877E-002, 1.08207E-006
3.40000E-002, 9.67178E-007
3.19994E-002, 8.45291E-007
3.00050E-002, 7.16963E-007
2.80082E-002, 5.74373E-007
2.59993E-002, 4.27495E-007
2.39970E-002, 2.72539E-007
2.19964E-002, 1.07651E-007
1.99971E-002, -6.57794E-008
1.79969E-002, -2.51037E-007
1.60030E-002, -4.45319E-007
1.40124E-002, -6.51965E-007
1.20289E-002, -8.70034E-007
1.00007E-002, -1.08803E-006
8.01015E-003, -1.33521E-006
6.00580E-003, -1.59473E-006
3.99978E-003, -1.86227E-006
2.00419E-003, -2.14604E-006
2.27776E-005, -2.44769E-006
-1.98866E-003, -2.76290E-006
-4.01345E-003, -3.09096E-006
-5.99153E-003, -3.43877E-006
-8.00213E-003, -3.79818E-006
-9.99022E-003, -4.18307E-006
-1.19887E-002, -4.57531E-006
-1.40031E-002, -4.98985E-006
-1.60154E-002, -5.42311E-006
-1.80001E-002, -5.87287E-006
-2.00086E-002, -6.34098E-006
-2.19917E-002, -6.82675E-006
-2.40002E-002, -7.33302E-006
-2.59892E-002, -7.86097E-006
-2.80148E-002, -8.40547E-006
-3.00050E-002, -8.97064E-006
-3.19980E-002, -9.54508E-006
-3.40007E-002, -1.01510E-005
-3.59863E-002, -1.07732E-005
-3.79911E-002, -1.14191E-005
-4.00034E-002, -1.20817E-005
-4.19956E-002, -1.27652E-005
-4.39916E-002, -1.34654E-005
-4.59889E-002, -1.41873E-005
-4.79765E-002, -1.49265E-005
-4.99922E-002, -1.56883E-005
-5.19894E-002, -1.64648E-005
-5.40000E-002, -1.72598E-005
-5.59910E-002, -1.80737E-005
-5.79962E-002, -1.89103E-005
-5.99931E-002, -1.97639E-005
-6.19982E-002, -2.06293E-005
-6.39897E-002, -2.15150E-005
-6.59844E-002, -2.24139E-005
-6.79917E-002, -2.33313E-005
-6.99739E-002, -2.42606E-005
-7.19937E-002, -2.52099E-005
-7.39781E-002, -2.61709E-005
-7.59770E-002, -2.71443E-005
-7.79801E-002, -2.81281E-005
-7.99932E-002, -2.91315E-005
-8.19921E-002, -3.01460E-005
-8.39915E-002, -3.11788E-005
-8.59762E-002, -3.22195E-005
-8.79943E-002, -3.32597E-005
-8.99778E-002, -3.43197E-005
-9.19897E-002, -3.53852E-005
-9.39865E-002, -3.64617E-005
-9.59679E-002, -3.75385E-005
-9.79635E-002, -3.86285E-005
-9.99754E-002, -3.97282E-005
-1.01963E-001, -4.08336E-005
-1.03990E-001, -4.19418E-005
-1.05990E-001, -4.30632E-005
-1.08024E-001, -4.42379E-005
-1.10027E-001, -4.53574E-005
-1.12018E-001, -4.64949E-005
-1.14024E-001, -4.76147E-005
-1.16033E-001, -4.87421E-005
-1.18017E-001, -4.98789E-005
-1.20034E-001, -5.10103E-005
-1.21998E-001, -5.21335E-005
-1.24009E-001, -5.32583E-005
-1.25996E-001, -5.43797E-005
-1.27995E-001, -5.55134E-005
-1.30006E-001, -5.66309E-005
-1.32017E-001, -5.77381E-005
-1.34019E-001, -5.88417E-005
-1.36026E-001, -5.99376E-005
-1.38007E-001, -6.10407E-005
-1.40014E-001, -6.21190E-005
-1.42020E-001, -6.31922E-005
-1.44021E-001, -6.42534E-005
-1.46016E-001, -6.53069E-005
-1.48018E-001, -6.63488E-005
-1.49995E-001, -6.73658E-005
-1.51994E-001, -6.83717E-005
-1.53971E-001, -6.93751E-005
-1.56010E-001, -7.03573E-005
-1.58013E-001, -7.13090E-005
-1.60011E-001, -7.22452E-005
-1.62008E-001, -7.31583E-005
-1.64018E-001, -7.40594E-005
-1.66009E-001, -7.49439E-005
-1.68022E-001, -7.57821E-005
-1.70018E-001, -7.65867E-005
-1.72010E-001, -7.73990E-005
-1.74012E-001, -7.81536E-005
-1.75998E-001, -7.88959E-005
-1.78004E-001, -7.95670E-005
-1.79986E-001, -8.02391E-005
-1.82016E-001, -8.08861E-005
-1.84011E-001, -8.14269E-005
-1.85996E-001, -8.20193E-005
-1.87996E-001, -8.25037E-005
-1.89991E-001, -8.29506E-005
-1.92006E-001, -8.33946E-005
-1.94012E-001, -8.37281E-005
-1.96010E-001, -8.40599E-005
-1.98003E-001, -8.43324E-005
-2.00015E-001, -8.45451E-005
-2.01999E-001, -8.46989E-005
-2.04001E-001, -8.47792E-005
-2.06005E-001, -8.48411E-005
-2.08001E-001, -8.48202E-005
-2.09992E-001, -8.47087E-005
-2.12000E-001, -8.45697E-005
-2.13994E-001, -8.43884E-005
-2.15988E-001, -8.41256E-005
-2.17977E-001, -8.37883E-005
-2.20005E-001, -8.33905E-005
-2.21992E-001, -8.29404E-005
-2.23988E-001, -8.24473E-005
-2.25986E-001, -8.18926E-005
-2.27971E-001, -8.12654E-005
-2.29973E-001, -8.05986E-005
-2.31969E-001, -7.99378E-005
-2.33975E-001, -7.92309E-005
-2.35989E-001, -7.84447E-005
-2.37988E-001, -7.76470E-005
-2.39989E-001, -7.68657E-005
-2.41976E-001, -7.60810E-005
-2.44003E-001, -7.52649E-005
-2.46007E-001, -7.44325E-005
-2.47995E-001, -7.36272E-005
-2.49992E-001, -7.28585E-005
-2.51995E-001, -7.20753E-005
-2.53978E-001, -7.12873E-005
-2.55986E-001, -7.05305E-005
-2.57988E-001, -6.98064E-005
-2.59997E-001, -6.91056E-005
-2.61990E-001, -6.84046E-005
-2.63989E-001, -6.77204E-005
-2.65980E-001, -6.70790E-005
-2.67986E-001, -6.64635E-005
-2.70049E-001, -6.58624E-005
-2.72046E-001, -6.52613E-005
-2.74047E-001, -6.46939E-005
-2.76024E-001, -6.41517E-005
-2.78014E-001, -6.36353E-005
-2.80018E-001, -6.31202E-005
-2.82011E-001, -6.26230E-005
-2.84015E-001, -6.21586E-005
-2.86040E-001, -6.17132E-005
-2.88027E-001, -6.12736E-005
-2.90039E-001, -6.08457E-005
-2.92015E-001, -6.04408E-005
-2.94024E-001, -6.00626E-005
-2.96031E-001, -5.96938E-005
-2.98040E-001, -5.93362E-005
-3.00040E-001, -5.89954E-005
-3.02021E-001, -5.86737E-005
-3.04002E-001, -5.83677E-005
-3.05997E-001, -5.80738E-005
-3.08000E-001, -5.77899E-005
-3.10024E-001, -5.75252E-005
-3.12033E-001, -5.72792E-005
-3.14031E-001, -5.70458E-005
-3.16020E-001, -5.68228E-005
-3.18015E-001, -5.66119E-005
-3.20014E-001, -5.64210E-005
-3.22029E-001, -5.62493E-005
-3.24019E-001, -5.60894E-005
-3.26014E-001, -5.59358E-005
-3.28019E-001, -5.58033E-005
-3.30007E-001, -5.56903E-005
-3.31989E-001, -5.55883E-005
-3.34002E-001, -5.54972E-005
-3.36009E-001, -5.54209E-005
-3.38010E-001, -5.53654E-005
-3.40005E-001, -5.53225E-005
-3.41996E-001, -5.52914E-005
-3.43992E-001, -5.52729E-005
-3.45990E-001, -5.52667E-005
-3.48003E-001, -5.52812E-005
-3.50005E-001, -5.53115E-005
-3.52004E-001, -5.53460E-005
-3.54000E-001, -5.53926E-005
-3.55987E-001, -5.54512E-005
-3.57992E-001, -5.55239E-005
-3.59997E-001, -5.56031E-005
-3.62017E-001, -5.56837E-005
-3.64006E-001, -5.57740E-005
-3.66011E-001, -5.58744E-005
-3.68013E-001, -5.59747E-005
-3.70007E-001, -5.60734E-005
-3.71994E-001, -5.61719E-005
-3.74023E-001, -5.62709E-005
-3.76017E-001, -5.63621E-005
-3.78005E-001, -5.64537E-005
-3.80013E-001, -5.65296E-005
-3.81993E-001, -5.65910E-005
-3.83993E-001, -5.66497E-005
-3.86005E-001, -5.66946E-005
-3.88012E-001, -5.67148E-005
-3.90014E-001, -5.67275E-005
-3.92020E-001, -5.67231E-005
-3.94003E-001, -5.67060E-005
-3.95996E-001, -5.66686E-005
-3.98011E-001, -5.66187E-005
-4.00006E-001, -5.65570E-005
-4.02004E-001, -5.64823E-005
-4.03994E-001, -5.63967E-005
-4.05988E-001, -5.63073E-005
-4.07981E-001, -5.62065E-005
-4.09983E-001, -5.61051E-005
-4.11986E-001, -5.60078E-005
-4.13980E-001, -5.59120E-005
-4.15980E-001, -5.58214E-005
-4.17980E-001, -5.57355E-005
-4.19984E-001, -5.56726E-005
-4.21978E-001, -5.56185E-005
-4.24000E-001, -5.55734E-005
-4.25986E-001, -5.55501E-005
-4.27975E-001, -5.55462E-005
-4.30021E-001, -5.55849E-005
-4.32020E-001, -5.56098E-005
-4.34013E-001, -5.56625E-005
-4.35997E-001, -5.57431E-005
-4.38029E-001, -5.58489E-005
-4.40025E-001, -5.59746E-005
-4.42040E-001, -5.61270E-005
-4.44031E-001, -5.63076E-005
-4.46027E-001, -5.65116E-005
-4.48007E-001, -5.67386E-005
-4.50032E-001, -5.69844E-005
-4.52025E-001, -5.72618E-005
-4.54034E-001, -5.75642E-005
-4.56029E-001, -5.78895E-005
-4.58018E-001, -5.82347E-005
-4.60009E-001, -5.86079E-005
-4.62017E-001, -5.90051E-005
-4.64026E-001, -5.94212E-005
-4.66031E-001, -5.98500E-005
-4.68027E-001, -6.03257E-005
-4.70031E-001, -6.08141E-005
-4.72011E-001, -6.13049E-005
-4.74018E-001, -6.18309E-005
-4.76025E-001, -6.23865E-005
-4.78027E-001, -6.29593E-005
-4.80027E-001, -6.35485E-005
-4.82027E-001, -6.41601E-005
-4.84012E-001, -6.47966E-005
-4.86009E-001, -6.54392E-005
-4.88017E-001, -6.60978E-005
-4.90026E-001, -6.67909E-005
-4.92021E-001, -6.75092E-005
-4.94032E-001, -6.82374E-005
-4.96020E-001, -6.89770E-005
-4.98021E-001, -6.97248E-005
-5.00005E-001, -7.05036E-005
-5.02018E-001, -7.13074E-005
-5.04021E-001, -7.21155E-005
-5.06006E-001, -7.29143E-005
-5.07997E-001, -7.37505E-005
-5.09994E-001, -7.45992E-005
-5.11990E-001, -7.54575E-005
-5.13994E-001, -7.63175E-005
-5.16009E-001, -7.72063E-005
-5.18006E-001, -7.81203E-005
-5.20006E-001, -7.90129E-005
-5.22004E-001, -7.99123E-005
-5.24003E-001, -8.08250E-005
-5.26019E-001, -8.17621E-005
-5.28009E-001, -8.27109E-005
-5.30000E-001, -8.36404E-005
-5.31997E-001, -8.45556E-005
-5.33998E-001, -8.55067E-005
-5.35981E-001, -8.64708E-005
-5.37974E-001, -8.74165E-005
-5.40002E-001, -8.83382E-005
-5.42005E-001, -8.92897E-005
-5.44015E-001, -9.02406E-005
-5.46000E-001, -9.11714E-005
-5.48005E-001, -9.20838E-005
-5.49994E-001, -9.30035E-005
-5.52001E-001, -9.39491E-005
-5.54003E-001, -9.49018E-005
-5.55998E-001, -9.57778E-005
-5.57996E-001, -9.66773E-005
-5.59988E-001, -9.76175E-005
-5.61994E-001, -9.85306E-005
-5.63978E-001, -9.93992E-005
-5.65997E-001, -1.00240E-004
-5.68017E-001, -1.01110E-004
-5.70017E-001, -1.02000E-004
-5.72011E-001, -1.02811E-004
-5.74001E-001, -1.03600E-004
-5.75997E-001, -1.04390E-004
-5.78009E-001, -1.05177E-004
-5.79997E-001, -1.05945E-004
-5.82007E-001, -1.06645E-004
-5.84011E-001, -1.07345E-004
-5.86004E-001, -1.08033E-004
-5.87982E-001, -1.08706E-004
-5.90032E-001, -1.09375E-004
-5.92038E-001, -1.09942E-004
-5.94038E-001, -1.10504E-004
-5.96032E-001, -1.11055E-004
-5.98055E-001, -1.11543E-004
-6.00034E-001, -1.11979E-004
-6.02031E-001, -1.12399E-004
-6.04048E-001, -1.12795E-004
-6.06036E-001, -1.13134E-004
-6.08043E-001, -1.13418E-004
-6.10044E-001, -1.13668E-004
-6.12032E-001, -1.13823E-004
-6.14024E-001, -1.14000E-004
-6.16040E-001, -1.14156E-004
-6.18045E-001, -1.14175E-004
-6.20033E-001, -1.14171E-004
-6.22031E-001, -1.14107E-004
-6.24035E-001, -1.14031E-004
-6.26023E-001, -1.13888E-004
-6.28003E-001, -1.13614E-004
-6.30036E-001, -1.13373E-004
-6.32032E-001, -1.13069E-004
-6.34020E-001, -1.12686E-004
-6.36021E-001, -1.12260E-004
-6.38015E-001, -1.11745E-004
-6.40000E-001, -1.11236E-004
-6.42013E-001, -1.10698E-004
-6.44028E-001, -1.10052E-004
-6.46025E-001, -1.09392E-004
-6.48021E-001, -1.08709E-004
-6.50029E-001, -1.08022E-004
-6.52018E-001, -1.07303E-004
-6.54047E-001, -1.06532E-004
-6.56035E-001, -1.05745E-004
-6.58022E-001, -1.04980E-004
-6.60010E-001, -1.04199E-004
-6.62017E-001, -1.03407E-004
-6.64012E-001, -1.02593E-004
-6.66010E-001, -1.01810E-004
-6.68019E-001, -1.01050E-004
-6.70027E-001, -1.00286E-004
-6.72022E-001, -9.95209E-005
-6.74034E-001, -9.87756E-005
-6.76028E-001, -9.80539E-005
-6.78017E-001, -9.73513E-005
-6.80032E-001, -9.66521E-005
-6.82018E-001, -9.59590E-005
-6.84003E-001, -9.52940E-005
-6.86008E-001, -9.46447E-005
-6.88008E-001, -9.39923E-005
-6.90012E-001, -9.33557E-005
-6.92005E-001, -9.27392E-005
-6.94019E-001, -9.21669E-005
-6.96030E-001, -9.15956E-005
-6.98022E-001, -9.10291E-005
-7.00015E-001, -9.04800E-005
-7.02011E-001, -8.99578E-005
-7.04011E-001, -8.94357E-005
-7.06040E-001, -8.89311E-005
-7.08029E-001, -8.84348E-005
-7.10020E-001, -8.79377E-005
-7.12008E-001, -8.74570E-005
-7.14012E-001, -8.69958E-005
-7.15999E-001, -8.65544E-005
-7.17987E-001, -8.61203E-005
-7.19988E-001, -8.56902E-005
-7.22003E-001, -8.52772E-005
-7.24017E-001, -8.48654E-005
-7.26007E-001, -8.44780E-005
-7.28004E-001, -8.41041E-005
-7.29995E-001, -8.37252E-005
-7.32020E-001, -8.33505E-005
-7.34007E-001, -8.29894E-005
-7.36004E-001, -8.26184E-005
-7.38006E-001, -8.22664E-005
-7.39999E-001, -8.19296E-005
-7.41985E-001, -8.16081E-005
-7.43995E-001, -8.12986E-005
-7.45992E-001, -8.09674E-005
-7.47984E-001, -8.07435E-005
-7.49980E-001, -8.04497E-005
-7.52038E-001, -8.01703E-005
-7.54034E-001, -7.98922E-005
-7.56018E-001, -7.95929E-005
-7.58041E-001, -7.93101E-005
-7.60017E-001, -7.90197E-005
-7.62019E-001, -7.87373E-005
-7.64022E-001, -7.84752E-005
-7.66008E-001, -7.82171E-005
-7.68004E-001, -7.79792E-005
-7.70031E-001, -7.77440E-005
-7.72032E-001, -7.74986E-005
-7.74024E-001, -7.72636E-005
-7.76025E-001, -7.70344E-005
-7.78015E-001, -7.68251E-005
-7.80014E-001, -7.65930E-005
-7.82018E-001, -7.63431E-005
-7.84033E-001, -7.61207E-005
-7.86024E-001, -7.59191E-005
-7.88027E-001, -7.57147E-005
-7.90015E-001, -7.54883E-005
-7.92010E-001, -7.52858E-005
-7.94007E-001, -7.51013E-005
-7.96021E-001, -7.48988E-005
-7.98015E-001, -7.46979E-005
-8.00022E-001, -7.45235E-005
-8.02035E-001, -7.43603E-005
-8.04014E-001, -7.41769E-005
-8.06001E-001, -7.39722E-005
-8.08025E-001, -7.37795E-005
-8.10007E-001, -7.35954E-005
-8.12030E-001, -7.34184E-005
-8.14015E-001, -7.32409E-005
-8.16017E-001, -7.30677E-005
-8.18000E-001, -7.28999E-005
-8.19993E-001, -7.27315E-005
-8.22009E-001, -7.25723E-005
-8.24000E-001, -7.24256E-005
-8.26004E-001, -7.22789E-005
-8.27995E-001, -7.21250E-005
-8.29982E-001, -7.19546E-005
-8.31981E-001, -7.17763E-005
-8.34001E-001, -7.16093E-005
-8.35998E-001, -7.14614E-005
-8.38000E-001, -7.13191E-005
-8.39986E-001, -7.11683E-005
-8.41981E-001, -7.10265E-005
-8.43982E-001, -7.08841E-005
-8.45966E-001, -7.07416E-005
-8.47989E-001, -7.06003E-005
-8.49986E-001, -7.04652E-005
-8.51989E-001, -7.03325E-005
-8.53992E-001, -7.01928E-005
-8.55994E-001, -7.00413E-005
-8.57977E-001, -6.99020E-005
-8.60006E-001, -6.97697E-005
-8.61997E-001, -6.96514E-005
-8.63992E-001, -6.95368E-005
-8.66001E-001, -6.94081E-005
-8.67983E-001, -6.92660E-005
-8.69981E-001, -6.91486E-005
-8.71996E-001, -6.90578E-005
-8.74009E-001, -6.89411E-005
-8.76014E-001, -6.88028E-005
-8.77988E-001, -6.86781E-005
-8.79997E-001, -6.85561E-005
-8.81992E-001, -6.84152E-005
-8.83989E-001, -6.82936E-005
-8.85995E-001, -6.82103E-005
-8.87978E-001, -6.81219E-005
-8.89974E-001, -6.80206E-005
-8.91982E-001, -6.79165E-005
-8.93967E-001, -6.78249E-005
-8.95975E-001, -6.77395E-005
-8.97993E-001, -6.76442E-005
-8.99990E-001, -6.75224E-005
-9.01974E-001, -6.73880E-005
-9.03982E-001, -6.72705E-005
-9.05979E-001, -6.71697E-005
-9.07982E-001, -6.70879E-005
-9.09975E-001, -6.70185E-005
-9.12048E-001, -6.69684E-005
-9.14050E-001, -6.69054E-005
-9.16030E-001, -6.68170E-005
-9.18015E-001, -6.67027E-005
-9.20013E-001, -6.66003E-005
-9.22013E-001, -6.65149E-005
-9.24024E-001, -6.64316E-005
-9.26023E-001, -6.63357E-005
-9.28039E-001, -6.62512E-005
-9.30020E-001, -6.61842E-005
-9.32007E-001, -6.61398E-005
-9.34014E-001, -6.60926E-005
-9.36031E-001, -6.60305E-005
-9.38013E-001, -6.59636E-005
-9.40006E-001, -6.58931E-005
-9.41992E-001, -6.58072E-005
-9.43999E-001, -6.57197E-005
-9.45990E-001, -6.56554E-005
-9.47986E-001, -6.56089E-005
-9.49999E-001, -6.55618E-005
-9.52008E-001, -6.54946E-005
-9.54007E-001, -6.54254E-005
-9.55997E-001, -6.53825E-005
-9.57998E-001, -6.53532E-005
-9.60000E-001, -6.53182E-005
-9.62020E-001, -6.52746E-005
-9.64005E-001, -6.52243E-005
-9.66011E-001, -6.51668E-005
-9.68017E-001, -6.51135E-005
-9.70005E-001, -6.50681E-005
-9.71992E-001, -6.50253E-005
-9.73990E-001, -6.49806E-005
-9.75991E-001, -6.49308E-005
-9.78012E-001, -6.48871E-005
-9.79994E-001, -6.48569E-005
-9.82006E-001, -6.48442E-005
-9.84002E-001, -6.48381E-005
-9.85998E-001, -6.48220E-005
-9.88005E-001, -6.47710E-005
-9.90001E-001, -6.47318E-005
-9.91997E-001, -6.47095E-005
-9.94001E-001, -6.46681E-005
-9.95995E-001, -6.46261E-005
-9.97983E-001, -6.45914E-005
-9.99987E-001, -6.45484E-005
##END=$$ End of the data block
