##TITLE=Spectrum
##JCAMP-DX=5.00 $$ chemotion-converter-app (1.7.0)
##DATA TYPE=CYCLIC VOLTAMMETRY
##DATA CLASS=XYPOINTS
##ORIGIN=
##OWNER=
##XUNITS=Voltage in V
##YUNITS=Current in A
##DATE=2.7.2020
##SCAN_RATE=0.0999998
##STEP_SIZE=0.002
##CYCLES=3
##SOFTWARE_VERSION=7.8.1
##SOFTWARE=Framework
##TIME=18:22:48
##VOLTAGE_START=0.00000E+000
##VOLTAGE_LIMIT_ONE=4.00000E-001
##VOLTAGE_LIMIT_TWO=-1.00000E+000
##VOLTAGE_LIMIT_END=0.00000E+000
##SERIAL=IFC1010-23191
##INSTRUMENT=Potentiostat
##FIRSTX=4.84451E-006
##LASTX=-9.99977E-001
##MINX=-0.999977
##MAXX=0.400043
##MINY=-0.000112287
##MAXY=1.06225e-06
##NPOINTS=901
##FIRSTY=-1.39158E-006
##XUNITS=Voltage in V
##YUNITS=Current in A
##XYPOINTS=(XY..XY)
4.84451E-006, -1.39158E-006
1.99710E-003, -8.42562E-007
4.00896E-003, -4.39745E-007
6.01206E-003, -1.15140E-007
8.01224E-003, 1.28712E-007
9.99782E-003, 3.27573E-007
1.20276E-002, 4.81832E-007
1.40140E-002, 6.11920E-007
1.60038E-002, 7.16172E-007
1.79969E-002, 8.04454E-007
2.00075E-002, 8.75632E-007
2.19989E-002, 9.26911E-007
2.39974E-002, 9.62617E-007
2.60084E-002, 9.96138E-007
2.80099E-002, 1.02391E-006
2.99955E-002, 1.04065E-006
3.19769E-002, 1.05134E-006
3.39750E-002, 1.06089E-006
3.59802E-002, 1.06225E-006
3.79908E-002, 1.06161E-006
3.99901E-002, 1.05915E-006
4.19903E-002, 1.05057E-006
4.39925E-002, 1.04094E-006
4.59940E-002, 1.03255E-006
4.80538E-002, 1.02244E-006
5.00561E-002, 1.00706E-006
5.20550E-002, 9.92144E-007
5.40573E-002, 9.76133E-007
5.60441E-002, 9.58034E-007
5.80443E-002, 9.40028E-007
6.00353E-002, 9.24273E-007
6.20267E-002, 9.05827E-007
6.40577E-002, 8.88207E-007
6.60350E-002, 8.71866E-007
6.80435E-002, 8.55360E-007
7.00449E-002, 8.36501E-007
7.20318E-002, 8.19278E-007
7.40436E-002, 8.03207E-007
7.60597E-002, 7.86533E-007
7.80469E-002, 7.69897E-007
8.00304E-002, 7.54134E-007
8.20293E-002, 7.39721E-007
8.40354E-002, 7.23469E-007
8.60130E-002, 7.08556E-007
8.80140E-002, 6.94309E-007
9.00313E-002, 6.79325E-007
9.20257E-002, 6.66290E-007
9.40300E-002, 6.55316E-007
9.60168E-002, 6.40874E-007
9.80174E-002, 6.27533E-007
1.00034E-001, 6.17342E-007
1.02041E-001, 6.04528E-007
1.04048E-001, 5.93597E-007
1.06034E-001, 5.82119E-007
1.08027E-001, 5.72252E-007
1.10031E-001, 5.63607E-007
1.12025E-001, 5.53997E-007
1.14014E-001, 5.45060E-007
1.16023E-001, 5.36264E-007
1.18019E-001, 5.26442E-007
1.20018E-001, 5.19534E-007
1.22014E-001, 5.12521E-007
1.24020E-001, 5.03734E-007
1.26032E-001, 4.97499E-007
1.28040E-001, 4.89971E-007
1.30032E-001, 4.84019E-007
1.32017E-001, 4.77442E-007
1.34014E-001, 4.71376E-007
1.36024E-001, 4.65596E-007
1.38007E-001, 4.60970E-007
1.40018E-001, 4.55914E-007
1.42023E-001, 4.50863E-007
1.44026E-001, 4.45951E-007
1.46004E-001, 4.41590E-007
1.48010E-001, 4.38160E-007
1.50008E-001, 4.33607E-007
1.52012E-001, 4.30193E-007
1.54028E-001, 4.26155E-007
1.56028E-001, 4.23680E-007
1.58027E-001, 4.19104E-007
1.60011E-001, 4.16356E-007
1.62011E-001, 4.15053E-007
1.64009E-001, 4.11420E-007
1.66029E-001, 4.08511E-007
1.68030E-001, 4.06871E-007
1.70008E-001, 4.04996E-007
1.72017E-001, 4.03387E-007
1.74019E-001, 4.01873E-007
1.75992E-001, 3.99096E-007
1.78006E-001, 3.98296E-007
1.80018E-001, 3.97102E-007
1.82020E-001, 3.96726E-007
1.84006E-001, 3.94638E-007
1.86006E-001, 3.94379E-007
1.87998E-001, 3.93395E-007
1.89997E-001, 3.93315E-007
1.92018E-001, 3.93544E-007
1.94003E-001, 3.92024E-007
1.96010E-001, 3.91717E-007
1.98016E-001, 3.91895E-007
2.00006E-001, 3.93106E-007
2.02008E-001, 3.93507E-007
2.03999E-001, 3.92706E-007
2.06023E-001, 3.93661E-007
2.08054E-001, 3.96183E-007
2.10038E-001, 3.96954E-007
2.12033E-001, 3.97788E-007
2.14040E-001, 3.98391E-007
2.16033E-001, 3.99944E-007
2.18040E-001, 4.01498E-007
2.20042E-001, 4.03651E-007
2.22022E-001, 4.04677E-007
2.24035E-001, 4.06346E-007
2.26033E-001, 4.09791E-007
2.28035E-001, 4.11876E-007
2.30051E-001, 4.14123E-007
2.32051E-001, 4.15877E-007
2.34039E-001, 4.18852E-007
2.36035E-001, 4.21943E-007
2.38036E-001, 4.25638E-007
2.40045E-001, 4.28577E-007
2.42021E-001, 4.31844E-007
2.44042E-001, 4.35886E-007
2.46031E-001, 4.39982E-007
2.48035E-001, 4.43641E-007
2.50036E-001, 4.48267E-007
2.52023E-001, 4.52154E-007
2.54040E-001, 4.56602E-007
2.56055E-001, 4.60555E-007
2.58056E-001, 4.65747E-007
2.60040E-001, 4.70283E-007
2.62038E-001, 4.75535E-007
2.64045E-001, 4.81019E-007
2.66035E-001, 4.85519E-007
2.68017E-001, 4.90730E-007
2.70046E-001, 4.95967E-007
2.72044E-001, 5.01087E-007
2.74040E-001, 5.06764E-007
2.76041E-001, 5.12300E-007
2.78047E-001, 5.19534E-007
2.80049E-001, 5.24994E-007
2.82043E-001, 5.31322E-007
2.84045E-001, 5.36358E-007
2.86026E-001, 5.43029E-007
2.88030E-001, 5.49494E-007
2.90031E-001, 5.55068E-007
2.92030E-001, 5.61420E-007
2.94051E-001, 5.68305E-007
2.96037E-001, 5.74722E-007
2.98027E-001, 5.79922E-007
3.00039E-001, 5.87327E-007
3.02041E-001, 5.93368E-007
3.04027E-001, 5.99326E-007
3.06045E-001, 6.05800E-007
3.08051E-001, 6.13970E-007
3.10052E-001, 6.19309E-007
3.12036E-001, 6.26824E-007
3.14037E-001, 6.32758E-007
3.16011E-001, 6.37700E-007
3.18004E-001, 6.45368E-007
3.20029E-001, 6.52460E-007
3.22031E-001, 6.58700E-007
3.24002E-001, 6.64922E-007
3.26016E-001, 6.71724E-007
3.28017E-001, 6.78356E-007
3.30003E-001, 6.84534E-007
3.32004E-001, 6.91693E-007
3.34027E-001, 6.98973E-007
3.36008E-001, 7.04437E-007
3.37997E-001, 7.10950E-007
3.40007E-001, 7.17083E-007
3.42010E-001, 7.24361E-007
3.43990E-001, 7.30028E-007
3.46008E-001, 7.35782E-007
3.48000E-001, 7.43373E-007
3.49981E-001, 7.48382E-007
3.51998E-001, 7.55541E-007
3.53978E-001, 7.61052E-007
3.55979E-001, 7.68508E-007
3.58018E-001, 7.74009E-007
3.60010E-001, 7.81048E-007
3.62005E-001, 7.85963E-007
3.64003E-001, 7.93352E-007
3.65987E-001, 7.98365E-007
3.68033E-001, 8.04806E-007
3.70033E-001, 8.11153E-007
3.72050E-001, 8.17541E-007
3.74039E-001, 8.22308E-007
3.76053E-001, 8.29460E-007
3.78042E-001, 8.35075E-007
3.80035E-001, 8.39591E-007
3.82043E-001, 8.45788E-007
3.84070E-001, 8.52367E-007
3.86063E-001, 8.58910E-007
3.88049E-001, 8.64653E-007
3.90042E-001, 8.70774E-007
3.92051E-001, 8.75598E-007
3.94040E-001, 8.80958E-007
3.96034E-001, 8.86311E-007
3.98056E-001, 8.91705E-007
4.00043E-001, 8.95432E-007
3.98067E-001, 7.60542E-007
3.96030E-001, 6.82080E-007
3.94037E-001, 6.21046E-007
3.92046E-001, 5.71282E-007
3.90064E-001, 5.29256E-007
3.88062E-001, 4.92291E-007
3.86073E-001, 4.56914E-007
3.84083E-001, 4.27102E-007
3.82047E-001, 3.99491E-007
3.80050E-001, 3.73841E-007
3.78055E-001, 3.49085E-007
3.76053E-001, 3.26910E-007
3.74057E-001, 3.05518E-007
3.72062E-001, 2.85435E-007
3.70038E-001, 2.66061E-007
3.68051E-001, 2.48335E-007
3.66013E-001, 2.30068E-007
3.63998E-001, 2.14079E-007
3.62007E-001, 1.99479E-007
3.60016E-001, 1.84592E-007
3.58024E-001, 1.70367E-007
3.55991E-001, 1.56269E-007
3.53993E-001, 1.43817E-007
3.52009E-001, 1.31289E-007
3.50003E-001, 1.18962E-007
3.48015E-001, 1.05949E-007
3.46009E-001, 9.44039E-008
3.43998E-001, 8.37867E-008
3.42010E-001, 7.31031E-008
3.40005E-001, 6.22653E-008
3.38005E-001, 5.23767E-008
3.36013E-001, 4.23183E-008
3.34025E-001, 3.29416E-008
3.32002E-001, 2.35039E-008
3.30005E-001, 1.42855E-008
3.28016E-001, 5.91173E-009
3.26009E-001, -1.73547E-009
3.24015E-001, -1.16089E-008
3.22031E-001, -1.95133E-008
3.20015E-001, -2.81441E-008
3.18006E-001, -3.49157E-008
3.16010E-001, -4.49948E-008
3.14028E-001, -5.10283E-008
3.12012E-001, -5.81879E-008
3.10039E-001, -6.55507E-008
3.08040E-001, -7.22481E-008
3.06031E-001, -8.02199E-008
3.04016E-001, -8.60594E-008
3.02023E-001, -9.37257E-008
3.00018E-001, -1.00959E-007
2.98018E-001, -1.06034E-007
2.96032E-001, -1.12846E-007
2.94056E-001, -1.18843E-007
2.92035E-001, -1.24728E-007
2.90041E-001, -1.31404E-007
2.88042E-001, -1.35681E-007
2.86041E-001, -1.42002E-007
2.84053E-001, -1.47101E-007
2.82058E-001, -1.51501E-007
2.80036E-001, -1.57806E-007
2.78040E-001, -1.62722E-007
2.76043E-001, -1.67429E-007
2.74058E-001, -1.72628E-007
2.72049E-001, -1.77025E-007
2.70050E-001, -1.80857E-007
2.68027E-001, -1.85728E-007
2.66040E-001, -1.89233E-007
2.64052E-001, -1.92552E-007
2.62050E-001, -1.96351E-007
2.60046E-001, -2.00696E-007
2.58060E-001, -2.04382E-007
2.56042E-001, -2.08951E-007
2.54058E-001, -2.11533E-007
2.52040E-001, -2.13912E-007
2.50047E-001, -2.17947E-007
2.48038E-001, -2.20762E-007
2.46060E-001, -2.23569E-007
2.44056E-001, -2.26532E-007
2.42035E-001, -2.28798E-007
2.40047E-001, -2.31743E-007
2.38046E-001, -2.33888E-007
2.36049E-001, -2.37205E-007
2.34053E-001, -2.38208E-007
2.32057E-001, -2.40809E-007
2.30062E-001, -2.43092E-007
2.28054E-001, -2.45295E-007
2.26049E-001, -2.46402E-007
2.24049E-001, -2.49504E-007
2.22047E-001, -2.50466E-007
2.20061E-001, -2.53472E-007
2.18057E-001, -2.54834E-007
2.16034E-001, -2.57000E-007
2.14050E-001, -2.58752E-007
2.12041E-001, -2.61022E-007
2.10034E-001, -2.63895E-007
2.08046E-001, -2.64883E-007
2.06006E-001, -2.68851E-007
2.03999E-001, -2.69930E-007
2.02014E-001, -2.72644E-007
2.00013E-001, -2.74242E-007
1.98008E-001, -2.76943E-007
1.96005E-001, -2.78684E-007
1.94013E-001, -2.81715E-007
1.92023E-001, -2.84195E-007
1.90002E-001, -2.86602E-007
1.88009E-001, -2.88882E-007
1.86010E-001, -2.92077E-007
1.84019E-001, -2.95363E-007
1.82020E-001, -2.99370E-007
1.80013E-001, -3.02367E-007
1.78011E-001, -3.05305E-007
1.76001E-001, -3.08457E-007
1.74015E-001, -3.13089E-007
1.72014E-001, -3.16798E-007
1.70017E-001, -3.20136E-007
1.68021E-001, -3.24376E-007
1.66032E-001, -3.28554E-007
1.64004E-001, -3.32409E-007
1.62021E-001, -3.37037E-007
1.60019E-001, -3.40753E-007
1.58031E-001, -3.44836E-007
1.56030E-001, -3.49495E-007
1.54035E-001, -3.54175E-007
1.52024E-001, -3.57613E-007
1.50008E-001, -3.62912E-007
1.48006E-001, -3.67477E-007
1.46000E-001, -3.72555E-007
1.44024E-001, -3.77531E-007
1.42041E-001, -3.82224E-007
1.40025E-001, -3.89048E-007
1.38024E-001, -3.94229E-007
1.36025E-001, -4.00429E-007
1.34024E-001, -4.06852E-007
1.32023E-001, -4.13284E-007
1.30035E-001, -4.20629E-007
1.28038E-001, -4.27960E-007
1.26035E-001, -4.34658E-007
1.24020E-001, -4.43986E-007
1.22020E-001, -4.52284E-007
1.20027E-001, -4.61030E-007
1.18030E-001, -4.70101E-007
1.16032E-001, -4.80151E-007
1.14016E-001, -4.90619E-007
1.12019E-001, -5.01412E-007
1.10039E-001, -5.12069E-007
1.08043E-001, -5.23997E-007
1.06042E-001, -5.35296E-007
1.04054E-001, -5.48133E-007
1.02054E-001, -5.61433E-007
1.00048E-001, -5.75446E-007
9.80454E-002, -5.88633E-007
9.60373E-002, -6.03137E-007
9.40442E-002, -6.18984E-007
9.20440E-002, -6.34095E-007
9.00484E-002, -6.50809E-007
8.80386E-002, -6.66935E-007
8.60314E-002, -6.83721E-007
8.40445E-002, -7.02736E-007
8.20452E-002, -7.20321E-007
8.00521E-002, -7.41054E-007
7.80507E-002, -7.59290E-007
7.60822E-002, -7.81704E-007
7.40570E-002, -8.03960E-007
7.20572E-002, -8.27514E-007
7.00600E-002, -8.52757E-007
6.80514E-002, -8.77595E-007
6.60471E-002, -9.05885E-007
6.40431E-002, -9.33925E-007
6.20209E-002, -9.64652E-007
6.00294E-002, -9.99541E-007
5.80493E-002, -1.03630E-006
5.60416E-002, -1.07373E-006
5.40477E-002, -1.11571E-006
5.20537E-002, -1.15932E-006
5.00469E-002, -1.20723E-006
4.80467E-002, -1.25932E-006
4.59815E-002, -1.31714E-006
4.39875E-002, -1.37416E-006
4.19878E-002, -1.43849E-006
3.99976E-002, -1.50475E-006
3.79857E-002, -1.57826E-006
3.59843E-002, -1.65625E-006
3.39900E-002, -1.73853E-006
3.19852E-002, -1.82872E-006
2.99975E-002, -1.92178E-006
2.80053E-002, -2.02482E-006
2.60180E-002, -2.13342E-006
2.40003E-002, -2.24932E-006
2.19972E-002, -2.37287E-006
2.00025E-002, -2.50298E-006
1.80056E-002, -2.64493E-006
1.59921E-002, -2.79652E-006
1.40036E-002, -2.95334E-006
1.20184E-002, -3.12459E-006
9.99449E-003, -3.29858E-006
8.00640E-003, -3.49114E-006
6.00372E-003, -3.69176E-006
4.00103E-003, -3.90447E-006
2.00669E-003, -4.13152E-006
1.15173E-005, -4.36805E-006
-1.99200E-003, -4.62244E-006
-4.02096E-003, -4.88665E-006
-6.00529E-003, -5.16897E-006
-8.00505E-003, -5.46093E-006
-9.99481E-003, -5.77110E-006
-1.19992E-002, -6.09956E-006
-1.40002E-002, -6.44041E-006
-1.60104E-002, -6.79881E-006
-1.80072E-002, -7.17397E-006
-2.00095E-002, -7.56498E-006
-2.19901E-002, -7.97361E-006
-2.39982E-002, -8.40031E-006
-2.59862E-002, -8.84860E-006
-2.80119E-002, -9.31243E-006
-3.00008E-002, -9.77956E-006
-3.19997E-002, -1.02835E-005
-3.40024E-002, -1.07980E-005
-3.59901E-002, -1.13405E-005
-3.79932E-002, -1.18983E-005
-4.00054E-002, -1.24732E-005
-4.20056E-002, -1.30683E-005
-4.40020E-002, -1.36840E-005
-4.59914E-002, -1.43152E-005
-4.79803E-002, -1.49669E-005
-4.99821E-002, -1.56361E-005
-5.19798E-002, -1.63263E-005
-5.40004E-002, -1.70347E-005
-5.59877E-002, -1.77559E-005
-5.79945E-002, -1.85029E-005
-5.99901E-002, -1.92678E-005
-6.19878E-002, -2.00488E-005
-6.39817E-002, -2.08440E-005
-6.59828E-002, -2.16531E-005
-6.79925E-002, -2.24879E-005
-6.99744E-002, -2.33322E-005
-7.19699E-002, -2.41946E-005
-7.39726E-002, -2.50690E-005
-7.59666E-002, -2.59591E-005
-7.79642E-002, -2.68678E-005
-7.99894E-002, -2.77961E-005
-8.19842E-002, -2.87312E-005
-8.39944E-002, -2.96792E-005
-8.59812E-002, -3.06351E-005
-8.79831E-002, -3.16165E-005
-8.99712E-002, -3.26066E-005
-9.19922E-002, -3.36006E-005
-9.39790E-002, -3.46039E-005
-9.59613E-002, -3.56124E-005
-9.79648E-002, -3.66467E-005
-9.99729E-002, -3.76799E-005
-1.01956E-001, -3.87208E-005
-1.03987E-001, -3.97771E-005
-1.05992E-001, -4.08417E-005
-1.07981E-001, -4.19105E-005
-1.09980E-001, -4.29812E-005
-1.11990E-001, -4.40651E-005
-1.14037E-001, -4.52103E-005
-1.16054E-001, -4.62976E-005
-1.18038E-001, -4.73837E-005
-1.20048E-001, -4.84694E-005
-1.22029E-001, -4.95605E-005
-1.24019E-001, -5.06624E-005
-1.26019E-001, -5.17564E-005
-1.28019E-001, -5.28512E-005
-1.30026E-001, -5.39471E-005
-1.32022E-001, -5.50477E-005
-1.34024E-001, -5.61465E-005
-1.36019E-001, -5.72324E-005
-1.38011E-001, -5.83191E-005
-1.40012E-001, -5.93893E-005
-1.42018E-001, -6.04612E-005
-1.44005E-001, -6.15340E-005
-1.46012E-001, -6.25911E-005
-1.48006E-001, -6.36253E-005
-1.49985E-001, -6.46640E-005
-1.51986E-001, -6.56947E-005
-1.53982E-001, -6.67115E-005
-1.56005E-001, -6.77025E-005
-1.58011E-001, -6.86919E-005
-1.60002E-001, -6.96799E-005
-1.61998E-001, -7.06296E-005
-1.64003E-001, -7.15578E-005
-1.65996E-001, -7.24646E-005
-1.67999E-001, -7.33666E-005
-1.70000E-001, -7.42493E-005
-1.72002E-001, -7.50945E-005
-1.74002E-001, -7.59084E-005
-1.76005E-001, -7.67096E-005
-1.78004E-001, -7.74938E-005
-1.79988E-001, -7.82310E-005
-1.82010E-001, -7.89266E-005
-1.84008E-001, -7.96134E-005
-1.86000E-001, -8.02658E-005
-1.87997E-001, -8.08718E-005
-1.89997E-001, -8.14295E-005
-1.92002E-001, -8.19548E-005
-1.94002E-001, -8.24601E-005
-1.96018E-001, -8.29088E-005
-1.97995E-001, -8.32965E-005
-2.00012E-001, -8.36478E-005
-2.01986E-001, -8.39510E-005
-2.03989E-001, -8.42054E-005
-2.05991E-001, -8.44073E-005
-2.07994E-001, -8.45478E-005
-2.09991E-001, -8.46285E-005
-2.11984E-001, -8.46681E-005
-2.13993E-001, -8.46494E-005
-2.15974E-001, -8.45368E-005
-2.17974E-001, -8.44090E-005
-2.19992E-001, -8.41863E-005
-2.21990E-001, -8.39306E-005
-2.23982E-001, -8.36030E-005
-2.25985E-001, -8.31725E-005
-2.27975E-001, -8.27831E-005
-2.29966E-001, -8.22739E-005
-2.31969E-001, -8.16987E-005
-2.33981E-001, -8.11292E-005
-2.35990E-001, -8.04748E-005
-2.37985E-001, -7.98270E-005
-2.39971E-001, -7.90996E-005
-2.41971E-001, -7.83522E-005
-2.43984E-001, -7.76321E-005
-2.45979E-001, -7.68446E-005
-2.47987E-001, -7.60725E-005
-2.49979E-001, -7.52929E-005
-2.51974E-001, -7.45022E-005
-2.53962E-001, -7.37310E-005
-2.55965E-001, -7.29749E-005
-2.57979E-001, -7.22229E-005
-2.59989E-001, -7.14829E-005
-2.61983E-001, -7.07564E-005
-2.63991E-001, -7.00568E-005
-2.65986E-001, -6.93836E-005
-2.67983E-001, -6.87123E-005
-2.69997E-001, -6.80595E-005
-2.71985E-001, -6.74307E-005
-2.73982E-001, -6.68419E-005
-2.76015E-001, -6.62742E-005
-2.78018E-001, -6.56901E-005
-2.79988E-001, -6.51431E-005
-2.82006E-001, -6.46309E-005
-2.84008E-001, -6.41330E-005
-2.86029E-001, -6.36400E-005
-2.88023E-001, -6.31562E-005
-2.90030E-001, -6.27129E-005
-2.92005E-001, -6.22928E-005
-2.94019E-001, -6.18749E-005
-2.96023E-001, -6.14645E-005
-2.98039E-001, -6.10837E-005
-3.00037E-001, -6.07287E-005
-3.02025E-001, -6.03852E-005
-3.04003E-001, -6.00432E-005
-3.06001E-001, -5.97177E-005
-3.08003E-001, -5.94254E-005
-3.10025E-001, -5.91468E-005
-3.12026E-001, -5.88728E-005
-3.14008E-001, -5.86097E-005
-3.16016E-001, -5.83651E-005
-3.18001E-001, -5.81497E-005
-3.20016E-001, -5.79463E-005
-3.22026E-001, -5.77423E-005
-3.24028E-001, -5.75556E-005
-3.26013E-001, -5.73954E-005
-3.28020E-001, -5.72547E-005
-3.30011E-001, -5.71161E-005
-3.32003E-001, -5.69860E-005
-3.34017E-001, -5.68805E-005
-3.36005E-001, -5.68017E-005
-3.38012E-001, -5.67308E-005
-3.40013E-001, -5.66634E-005
-3.42014E-001, -5.66198E-005
-3.44008E-001, -5.65940E-005
-3.46008E-001, -5.65865E-005
-3.48022E-001, -5.65846E-005
-3.50026E-001, -5.65905E-005
-3.51987E-001, -5.66115E-005
-3.54000E-001, -5.66597E-005
-3.55997E-001, -5.67129E-005
-3.57992E-001, -5.67686E-005
-3.59988E-001, -5.68364E-005
-3.62017E-001, -5.69193E-005
-3.64001E-001, -5.70026E-005
-3.66004E-001, -5.70968E-005
-3.68015E-001, -5.71863E-005
-3.70012E-001, -5.72819E-005
-3.71998E-001, -5.73827E-005
-3.74018E-001, -5.74785E-005
-3.76015E-001, -5.75668E-005
-3.77987E-001, -5.76460E-005
-3.79988E-001, -5.77256E-005
-3.81992E-001, -5.78056E-005
-3.84001E-001, -5.78685E-005
-3.85996E-001, -5.79144E-005
-3.88011E-001, -5.79507E-005
-3.89999E-001, -5.79834E-005
-3.92000E-001, -5.79999E-005
-3.93999E-001, -5.80005E-005
-3.95992E-001, -5.79877E-005
-3.98002E-001, -5.79581E-005
-4.00006E-001, -5.79243E-005
-4.02002E-001, -5.78748E-005
-4.03987E-001, -5.78073E-005
-4.05995E-001, -5.77357E-005
-4.07996E-001, -5.76638E-005
-4.09978E-001, -5.75817E-005
-4.11996E-001, -5.74891E-005
-4.13985E-001, -5.73890E-005
-4.15995E-001, -5.73011E-005
-4.17988E-001, -5.72040E-005
-4.19993E-001, -5.71061E-005
-4.21979E-001, -5.70088E-005
-4.24017E-001, -5.69207E-005
-4.25990E-001, -5.68409E-005
-4.27978E-001, -5.67728E-005
-4.29984E-001, -5.67157E-005
-4.31978E-001, -5.66741E-005
-4.33981E-001, -5.66516E-005
-4.36018E-001, -5.66716E-005
-4.38052E-001, -5.66767E-005
-4.40032E-001, -5.67043E-005
-4.42038E-001, -5.67559E-005
-4.44016E-001, -5.68283E-005
-4.46032E-001, -5.69232E-005
-4.48024E-001, -5.70388E-005
-4.50048E-001, -5.71781E-005
-4.52028E-001, -5.73467E-005
-4.54032E-001, -5.75433E-005
-4.56025E-001, -5.77614E-005
-4.58023E-001, -5.80079E-005
-4.60015E-001, -5.82773E-005
-4.62021E-001, -5.85734E-005
-4.64034E-001, -5.88856E-005
-4.66041E-001, -5.92224E-005
-4.68027E-001, -5.95810E-005
-4.70044E-001, -5.99558E-005
-4.72020E-001, -6.03659E-005
-4.74027E-001, -6.07994E-005
-4.76038E-001, -6.12442E-005
-4.78032E-001, -6.17117E-005
-4.80028E-001, -6.22093E-005
-4.82024E-001, -6.27481E-005
-4.84018E-001, -6.32756E-005
-4.86000E-001, -6.38165E-005
-4.88017E-001, -6.43896E-005
-4.90026E-001, -6.50004E-005
-4.92021E-001, -6.56089E-005
-4.94015E-001, -6.62345E-005
-4.96024E-001, -6.68997E-005
-4.98010E-001, -6.75926E-005
-4.99998E-001, -6.82791E-005
-5.02017E-001, -6.89638E-005
-5.04010E-001, -6.96881E-005
-5.05989E-001, -7.04271E-005
-5.08004E-001, -7.11982E-005
-5.09986E-001, -7.19539E-005
-5.11982E-001, -7.27269E-005
-5.13991E-001, -7.35391E-005
-5.15991E-001, -7.43677E-005
-5.17999E-001, -7.51921E-005
-5.19995E-001, -7.60109E-005
-5.22009E-001, -7.68659E-005
-5.23996E-001, -7.77443E-005
-5.26021E-001, -7.86143E-005
-5.28012E-001, -7.94760E-005
-5.29986E-001, -8.03612E-005
-5.31984E-001, -8.12753E-005
-5.33977E-001, -8.21686E-005
-5.35970E-001, -8.30503E-005
-5.37969E-001, -8.39511E-005
-5.39997E-001, -8.48826E-005
-5.42000E-001, -8.57972E-005
-5.43991E-001, -8.66963E-005
-5.45970E-001, -8.76121E-005
-5.47980E-001, -8.85466E-005
-5.49984E-001, -8.94704E-005
-5.52010E-001, -9.03272E-005
-5.53995E-001, -9.12232E-005
-5.55986E-001, -9.21340E-005
-5.57994E-001, -9.30411E-005
-5.59989E-001, -9.39278E-005
-5.61976E-001, -9.48039E-005
-5.63976E-001, -9.56815E-005
-5.65992E-001, -9.65749E-005
-5.67990E-001, -9.74378E-005
-5.69994E-001, -9.82782E-005
-5.71998E-001, -9.91105E-005
-5.73984E-001, -9.99570E-005
-5.75988E-001, -1.00777E-004
-5.78001E-001, -1.01563E-004
-5.79992E-001, -1.02336E-004
-5.82001E-001, -1.03115E-004
-5.84001E-001, -1.03866E-004
-5.85988E-001, -1.04582E-004
-5.87987E-001, -1.05256E-004
-5.89998E-001, -1.05928E-004
-5.92006E-001, -1.06604E-004
-5.93996E-001, -1.07227E-004
-5.96054E-001, -1.07849E-004
-5.98052E-001, -1.08405E-004
-6.00048E-001, -1.08953E-004
-6.02038E-001, -1.09463E-004
-6.04051E-001, -1.09913E-004
-6.06043E-001, -1.10323E-004
-6.08044E-001, -1.10719E-004
-6.10061E-001, -1.11080E-004
-6.12030E-001, -1.11377E-004
-6.14039E-001, -1.11640E-004
-6.16036E-001, -1.11869E-004
-6.18043E-001, -1.12065E-004
-6.20031E-001, -1.12189E-004
-6.22039E-001, -1.12249E-004
-6.24039E-001, -1.12287E-004
-6.26017E-001, -1.12277E-004
-6.28023E-001, -1.12201E-004
-6.30041E-001, -1.12071E-004
-6.32031E-001, -1.11884E-004
-6.34040E-001, -1.11656E-004
-6.36016E-001, -1.11367E-004
-6.38011E-001, -1.11027E-004
-6.40005E-001, -1.10637E-004
-6.42003E-001, -1.10193E-004
-6.44025E-001, -1.09729E-004
-6.46018E-001, -1.09212E-004
-6.48019E-001, -1.08628E-004
-6.50015E-001, -1.08016E-004
-6.52021E-001, -1.07383E-004
-6.54037E-001, -1.06718E-004
-6.56023E-001, -1.06010E-004
-6.58020E-001, -1.05290E-004
-6.60017E-001, -1.04546E-004
-6.62017E-001, -1.03813E-004
-6.64008E-001, -1.03054E-004
-6.66001E-001, -1.02285E-004
-6.68011E-001, -1.01520E-004
-6.70026E-001, -1.00763E-004
-6.72013E-001, -1.00022E-004
-6.74029E-001, -9.92709E-005
-6.76014E-001, -9.85341E-005
-6.78014E-001, -9.78049E-005
-6.80037E-001, -9.70886E-005
-6.82015E-001, -9.63765E-005
-6.84002E-001, -9.56996E-005
-6.86012E-001, -9.50350E-005
-6.88004E-001, -9.43786E-005
-6.90000E-001, -9.37274E-005
-6.91994E-001, -9.31124E-005
-6.93997E-001, -9.24979E-005
-6.96011E-001, -9.19107E-005
-6.98024E-001, -9.13226E-005
-7.00013E-001, -9.07466E-005
-7.02012E-001, -9.01905E-005
-7.03993E-001, -8.96449E-005
-7.06005E-001, -8.91042E-005
-7.08018E-001, -8.86033E-005
-7.10000E-001, -8.81133E-005
-7.12002E-001, -8.76310E-005
-7.13993E-001, -8.71726E-005
-7.15988E-001, -8.67211E-005
-7.17998E-001, -8.62921E-005
-7.19980E-001, -8.58418E-005
-7.22000E-001, -8.53879E-005
-7.24000E-001, -8.49451E-005
-7.25989E-001, -8.45176E-005
-7.27985E-001, -8.40998E-005
-7.29983E-001, -8.37144E-005
-7.32005E-001, -8.33506E-005
-7.33998E-001, -8.29862E-005
-7.36001E-001, -8.26293E-005
-7.37995E-001, -8.22799E-005
-7.39987E-001, -8.19570E-005
-7.41985E-001, -8.16293E-005
-7.43998E-001, -8.13001E-005
-7.45986E-001, -8.09360E-005
-7.47969E-001, -8.06989E-005
-7.49980E-001, -8.03749E-005
-7.51985E-001, -8.00721E-005
-7.53994E-001, -7.97878E-005
-7.56019E-001, -7.95070E-005
-7.58052E-001, -7.92262E-005
-7.60037E-001, -7.89568E-005
-7.62031E-001, -7.86852E-005
-7.64020E-001, -7.84207E-005
-7.66012E-001, -7.81690E-005
-7.68016E-001, -7.79169E-005
-7.70023E-001, -7.76561E-005
-7.72044E-001, -7.73905E-005
-7.74026E-001, -7.71326E-005
-7.76022E-001, -7.68912E-005
-7.78017E-001, -7.66632E-005
-7.80012E-001, -7.64407E-005
-7.82011E-001, -7.62202E-005
-7.84013E-001, -7.60031E-005
-7.86028E-001, -7.57847E-005
-7.88018E-001, -7.55763E-005
-7.90007E-001, -7.53752E-005
-7.92010E-001, -7.51776E-005
-7.94004E-001, -7.49826E-005
-7.96019E-001, -7.47660E-005
-7.98016E-001, -7.45428E-005
-8.00028E-001, -7.43448E-005
-8.02012E-001, -7.41561E-005
-8.04017E-001, -7.39765E-005
-8.06008E-001, -7.38020E-005
-8.08041E-001, -7.36199E-005
-8.10021E-001, -7.34429E-005
-8.12033E-001, -7.32597E-005
-8.14016E-001, -7.30879E-005
-8.16022E-001, -7.29207E-005
-8.18003E-001, -7.27522E-005
-8.19999E-001, -7.25828E-005
-8.22014E-001, -7.24023E-005
-8.24005E-001, -7.22305E-005
-8.26002E-001, -7.20604E-005
-8.28000E-001, -7.18942E-005
-8.29995E-001, -7.17418E-005
-8.31974E-001, -7.15999E-005
-8.34006E-001, -7.14452E-005
-8.36001E-001, -7.12854E-005
-8.37991E-001, -7.11315E-005
-8.39985E-001, -7.09900E-005
-8.41989E-001, -7.08545E-005
-8.43977E-001, -7.07114E-005
-8.45984E-001, -7.05518E-005
-8.48002E-001, -7.03966E-005
-8.50004E-001, -7.02607E-005
-8.52003E-001, -7.01248E-005
-8.54000E-001, -6.99721E-005
-8.56007E-001, -6.98330E-005
-8.57980E-001, -6.97135E-005
-8.60023E-001, -6.96070E-005
-8.62001E-001, -6.94746E-005
-8.64004E-001, -6.93248E-005
-8.66009E-001, -6.92073E-005
-8.67992E-001, -6.91021E-005
-8.69981E-001, -6.89761E-005
-8.72002E-001, -6.88321E-005
-8.74010E-001, -6.86988E-005
-8.76006E-001, -6.85903E-005
-8.77985E-001, -6.84875E-005
-8.80000E-001, -6.83644E-005
-8.81977E-001, -6.82389E-005
-8.83998E-001, -6.81426E-005
-8.86013E-001, -6.80553E-005
-8.87993E-001, -6.79461E-005
-8.89986E-001, -6.78243E-005
-8.91985E-001, -6.77144E-005
-8.93979E-001, -6.76265E-005
-8.95963E-001, -6.75275E-005
-8.97974E-001, -6.74089E-005
-8.99982E-001, -6.72971E-005
-9.01979E-001, -6.72138E-005
-9.03977E-001, -6.71314E-005
-9.05979E-001, -6.70336E-005
-9.07965E-001, -6.69292E-005
-9.09962E-001, -6.68458E-005
-9.11987E-001, -6.67724E-005
-9.13985E-001, -6.66919E-005
-9.15973E-001, -6.65942E-005
-9.18020E-001, -6.64981E-005
-9.20003E-001, -6.64189E-005
-9.21999E-001, -6.63440E-005
-9.24019E-001, -6.62685E-005
-9.26020E-001, -6.61868E-005
-9.28013E-001, -6.61138E-005
-9.30012E-001, -6.60493E-005
-9.32009E-001, -6.59787E-005
-9.34013E-001, -6.58977E-005
-9.36024E-001, -6.58325E-005
-9.38019E-001, -6.57801E-005
-9.39999E-001, -6.57173E-005
-9.42000E-001, -6.56484E-005
-9.44000E-001, -6.55741E-005
-9.45990E-001, -6.55168E-005
-9.47978E-001, -6.54674E-005
-9.50006E-001, -6.54170E-005
-9.52003E-001, -6.53564E-005
-9.54010E-001, -6.52995E-005
-9.56011E-001, -6.52463E-005
-9.57998E-001, -6.52009E-005
-9.59991E-001, -6.51597E-005
-9.62009E-001, -6.51148E-005
-9.63998E-001, -6.50708E-005
-9.66006E-001, -6.50248E-005
-9.68002E-001, -6.49776E-005
-9.69981E-001, -6.49351E-005
-9.71981E-001, -6.49002E-005
-9.73974E-001, -6.48691E-005
-9.75994E-001, -6.48395E-005
-9.78002E-001, -6.48002E-005
-9.79988E-001, -6.47564E-005
-9.82007E-001, -6.47230E-005
-9.84001E-001, -6.47016E-005
-9.85984E-001, -6.46773E-005
-9.88000E-001, -6.46479E-005
-9.89991E-001, -6.46080E-005
-9.91997E-001, -6.45745E-005
-9.94001E-001, -6.45524E-005
-9.95979E-001, -6.45349E-005
-9.97974E-001, -6.45069E-005
-9.99977E-001, -6.44784E-005
##END=$$ End of the data block
