##TITLE=Spectrum
##JCAMP-DX=5.00 $$ chemotion-converter-app (1.1.0)
##DATA TYPE=CYCLIC VOLTAMMETRY
##DATA CLASS=XYPOINTS
##ORIGIN=
##OWNER=
##XUNITS=Voltage in V
##YUNITS=Current in A
##DATE=2.7.2020
##SCAN_RATE=0.0999998
##STEP_SIZE=0.002
##CYCLES=3
##SOFTWARE_VERSION=7.8.1
##SOFTWARE=Framework
##VOLTAGE_LIMIT_END=0.00000E+000
##SERIAL=IFC1010-23191
##FIRSTX=-9.97985E-001
##LASTX=1.19343E-005
##MINX=-0.997985
##MAXX=1.19343e-05
##MINY=-6.42543e-05
##MAXY=6.79594e-05
##NPOINTS=500
##FIRSTY=-6.42543E-005
##XUNITS=Voltage in V
##YUNITS=Current in A
##XYPOINTS=(XY..XY)
-9.97985E-001, -6.42543E-005
-9.95993E-001, -6.40349E-005
-9.93994E-001, -6.38483E-005
-9.92002E-001, -6.36695E-005
-9.90009E-001, -6.34925E-005
-9.88020E-001, -6.33197E-005
-9.85994E-001, -6.31599E-005
-9.84008E-001, -6.30130E-005
-9.82012E-001, -6.28526E-005
-9.80001E-001, -6.26780E-005
-9.78013E-001, -6.25041E-005
-9.75995E-001, -6.23399E-005
-9.73981E-001, -6.21976E-005
-9.71993E-001, -6.20759E-005
-9.69995E-001, -6.19727E-005
-9.68012E-001, -6.18760E-005
-9.66022E-001, -6.17786E-005
-9.64009E-001, -6.16626E-005
-9.62019E-001, -6.15468E-005
-9.59993E-001, -6.14335E-005
-9.58006E-001, -6.13133E-005
-9.56010E-001, -6.11798E-005
-9.54007E-001, -6.10489E-005
-9.52006E-001, -6.09336E-005
-9.50014E-001, -6.08376E-005
-9.47990E-001, -6.07454E-005
-9.45998E-001, -6.06599E-005
-9.44007E-001, -6.05718E-005
-9.42014E-001, -6.04917E-005
-9.40010E-001, -6.04094E-005
-9.38034E-001, -6.03239E-005
-9.36028E-001, -6.02316E-005
-9.34025E-001, -6.01376E-005
-9.32012E-001, -6.00397E-005
-9.30015E-001, -5.99382E-005
-9.28024E-001, -5.98361E-005
-9.26016E-001, -5.97488E-005
-9.24018E-001, -5.96753E-005
-9.21998E-001, -5.96130E-005
-9.20004E-001, -5.95429E-005
-9.18007E-001, -5.94735E-005
-9.16009E-001, -5.94022E-005
-9.14042E-001, -5.93371E-005
-9.12032E-001, -5.92666E-005
-9.09967E-001, -5.91898E-005
-9.07974E-001, -5.91041E-005
-9.05973E-001, -5.90120E-005
-9.03978E-001, -5.89243E-005
-9.01983E-001, -5.88427E-005
-8.99984E-001, -5.87746E-005
-8.97977E-001, -5.87236E-005
-8.95973E-001, -5.86803E-005
-8.93967E-001, -5.86271E-005
-8.91978E-001, -5.85621E-005
-8.89979E-001, -5.84973E-005
-8.87989E-001, -5.84372E-005
-8.85987E-001, -5.83739E-005
-8.83986E-001, -5.82999E-005
-8.81990E-001, -5.82206E-005
-8.79987E-001, -5.81448E-005
-8.77975E-001, -5.80779E-005
-8.75987E-001, -5.80184E-005
-8.74002E-001, -5.79607E-005
-8.71986E-001, -5.79075E-005
-8.69975E-001, -5.78632E-005
-8.67984E-001, -5.78155E-005
-8.65994E-001, -5.77679E-005
-8.63990E-001, -5.77114E-005
-8.61990E-001, -5.76526E-005
-8.60009E-001, -5.75913E-005
-8.57983E-001, -5.75210E-005
-8.55992E-001, -5.74425E-005
-8.53989E-001, -5.73771E-005
-8.51999E-001, -5.73199E-005
-8.49999E-001, -5.72693E-005
-8.48001E-001, -5.72219E-005
-8.45992E-001, -5.71708E-005
-8.43975E-001, -5.71281E-005
-8.41993E-001, -5.70852E-005
-8.39996E-001, -5.70433E-005
-8.37988E-001, -5.69912E-005
-8.36002E-001, -5.69364E-005
-8.34016E-001, -5.68736E-005
-8.31990E-001, -5.68075E-005
-8.29995E-001, -5.67338E-005
-8.27988E-001, -5.66689E-005
-8.26000E-001, -5.66150E-005
-8.24003E-001, -5.65740E-005
-8.22018E-001, -5.65315E-005
-8.20003E-001, -5.64920E-005
-8.18008E-001, -5.64520E-005
-8.16015E-001, -5.64105E-005
-8.14017E-001, -5.63653E-005
-8.12025E-001, -5.63120E-005
-8.10016E-001, -5.62524E-005
-8.08031E-001, -5.61875E-005
-8.06017E-001, -5.61225E-005
-8.04018E-001, -5.60614E-005
-8.02017E-001, -5.60034E-005
-8.00031E-001, -5.59555E-005
-7.98004E-001, -5.59195E-005
-7.96017E-001, -5.58914E-005
-7.94018E-001, -5.58554E-005
-7.92016E-001, -5.58078E-005
-7.90008E-001, -5.57555E-005
-7.88007E-001, -5.57047E-005
-7.86020E-001, -5.56510E-005
-7.84018E-001, -5.55952E-005
-7.82010E-001, -5.55416E-005
-7.80019E-001, -5.54870E-005
-7.78026E-001, -5.54330E-005
-7.76039E-001, -5.53832E-005
-7.74035E-001, -5.53426E-005
-7.72031E-001, -5.53048E-005
-7.70017E-001, -5.52676E-005
-7.68013E-001, -5.52265E-005
-7.66018E-001, -5.51797E-005
-7.64037E-001, -5.51298E-005
-7.62050E-001, -5.50776E-005
-7.60040E-001, -5.50320E-005
-7.58069E-001, -5.49861E-005
-7.56033E-001, -5.49343E-005
-7.54051E-001, -5.48772E-005
-7.52050E-001, -5.48284E-005
-7.49998E-001, -5.47832E-005
-7.47990E-001, -5.47363E-005
-7.46000E-001, -5.46938E-005
-7.43981E-001, -5.46538E-005
-7.41980E-001, -5.46197E-005
-7.39973E-001, -5.45754E-005
-7.37993E-001, -5.45310E-005
-7.35995E-001, -5.44858E-005
-7.33997E-001, -5.44318E-005
-7.31997E-001, -5.43741E-005
-7.29995E-001, -5.43186E-005
-7.28003E-001, -5.42644E-005
-7.26003E-001, -5.42163E-005
-7.24011E-001, -5.41708E-005
-7.22010E-001, -5.41251E-005
-7.20000E-001, -5.40806E-005
-7.17992E-001, -5.40332E-005
-7.15993E-001, -5.39855E-005
-7.13991E-001, -5.39418E-005
-7.12002E-001, -5.38899E-005
-7.09993E-001, -5.38322E-005
-7.08012E-001, -5.37756E-005
-7.06027E-001, -5.37150E-005
-7.03994E-001, -5.36469E-005
-7.02006E-001, -5.35844E-005
-6.99992E-001, -5.35243E-005
-6.98019E-001, -5.34733E-005
-6.96006E-001, -5.34164E-005
-6.94013E-001, -5.33596E-005
-6.91995E-001, -5.32963E-005
-6.90000E-001, -5.32345E-005
-6.88011E-001, -5.31730E-005
-6.86013E-001, -5.31028E-005
-6.84011E-001, -5.30263E-005
-6.82009E-001, -5.29424E-005
-6.80025E-001, -5.28538E-005
-6.78005E-001, -5.27629E-005
-6.76004E-001, -5.26748E-005
-6.74023E-001, -5.25926E-005
-6.72016E-001, -5.25041E-005
-6.70023E-001, -5.24140E-005
-6.68015E-001, -5.23226E-005
-6.65993E-001, -5.22272E-005
-6.64005E-001, -5.21259E-005
-6.62015E-001, -5.20139E-005
-6.60008E-001, -5.18908E-005
-6.58004E-001, -5.17586E-005
-6.56023E-001, -5.16257E-005
-6.54030E-001, -5.14841E-005
-6.52004E-001, -5.13388E-005
-6.50015E-001, -5.11909E-005
-6.48019E-001, -5.10325E-005
-6.46016E-001, -5.08712E-005
-6.44011E-001, -5.07002E-005
-6.41995E-001, -5.05261E-005
-6.39992E-001, -5.03421E-005
-6.38006E-001, -5.01460E-005
-6.36007E-001, -4.99296E-005
-6.34029E-001, -4.97064E-005
-6.32021E-001, -4.94624E-005
-6.30023E-001, -4.92133E-005
-6.28002E-001, -4.89532E-005
-6.26019E-001, -4.86834E-005
-6.24034E-001, -4.83937E-005
-6.22024E-001, -4.80946E-005
-6.20019E-001, -4.77928E-005
-6.18029E-001, -4.74749E-005
-6.16040E-001, -4.71364E-005
-6.14023E-001, -4.67776E-005
-6.12017E-001, -4.64054E-005
-6.10043E-001, -4.60147E-005
-6.08026E-001, -4.55996E-005
-6.06025E-001, -4.51669E-005
-6.04060E-001, -4.47261E-005
-6.02036E-001, -4.42691E-005
-6.00041E-001, -4.37872E-005
-5.98052E-001, -4.32897E-005
-5.96046E-001, -4.27772E-005
-5.94045E-001, -4.22457E-005
-5.92044E-001, -4.16989E-005
-5.90038E-001, -4.11246E-005
-5.87979E-001, -4.04973E-005
-5.85992E-001, -3.98920E-005
-5.84000E-001, -3.92640E-005
-5.81996E-001, -3.86172E-005
-5.79996E-001, -3.79464E-005
-5.78005E-001, -3.72573E-005
-5.75985E-001, -3.65525E-005
-5.73998E-001, -3.58305E-005
-5.72004E-001, -3.50853E-005
-5.69995E-001, -3.43244E-005
-5.68003E-001, -3.35519E-005
-5.65995E-001, -3.27633E-005
-5.63983E-001, -3.19484E-005
-5.61985E-001, -3.11186E-005
-5.59993E-001, -3.02737E-005
-5.58006E-001, -2.94166E-005
-5.55996E-001, -2.85452E-005
-5.54008E-001, -2.76490E-005
-5.52008E-001, -2.67390E-005
-5.49991E-001, -2.58219E-005
-5.47983E-001, -2.48810E-005
-5.45999E-001, -2.39339E-005
-5.44013E-001, -2.29789E-005
-5.42013E-001, -2.20134E-005
-5.40006E-001, -2.10366E-005
-5.37984E-001, -2.00389E-005
-5.35999E-001, -1.90347E-005
-5.34009E-001, -1.80255E-005
-5.31991E-001, -1.70036E-005
-5.29999E-001, -1.59804E-005
-5.28006E-001, -1.49431E-005
-5.26031E-001, -1.38962E-005
-5.24002E-001, -1.28479E-005
-5.22021E-001, -1.17907E-005
-5.20002E-001, -1.07297E-005
-5.18006E-001, -9.66091E-006
-5.16006E-001, -8.58352E-006
-5.14007E-001, -7.51520E-006
-5.11980E-001, -6.44278E-006
-5.09996E-001, -5.37240E-006
-5.08000E-001, -4.29966E-006
-5.05997E-001, -3.22552E-006
-5.04013E-001, -2.17015E-006
-5.02026E-001, -1.09966E-006
-5.00016E-001, -2.67145E-008
-4.98002E-001, 1.04944E-006
-4.96029E-001, 2.10154E-006
-4.94022E-001, 3.16242E-006
-4.92025E-001, 4.21614E-006
-4.90039E-001, 5.25888E-006
-4.88029E-001, 6.30107E-006
-4.86011E-001, 7.33072E-006
-4.84015E-001, 8.35390E-006
-4.82025E-001, 9.36144E-006
-4.80036E-001, 1.03756E-005
-4.78044E-001, 1.13606E-005
-4.76044E-001, 1.23293E-005
-4.74042E-001, 1.32848E-005
-4.72026E-001, 1.42262E-005
-4.70042E-001, 1.51453E-005
-4.68039E-001, 1.60496E-005
-4.66050E-001, 1.69283E-005
-4.64039E-001, 1.77877E-005
-4.62027E-001, 1.86349E-005
-4.60028E-001, 1.94450E-005
-4.58025E-001, 2.02228E-005
-4.56022E-001, 2.09775E-005
-4.54039E-001, 2.16997E-005
-4.52044E-001, 2.24018E-005
-4.50047E-001, 2.30687E-005
-4.48029E-001, 2.36938E-005
-4.46050E-001, 2.42860E-005
-4.44031E-001, 2.48461E-005
-4.42035E-001, 2.53680E-005
-4.40055E-001, 2.58374E-005
-4.38073E-001, 2.62477E-005
-4.36029E-001, 2.66311E-005
-4.34028E-001, 2.69681E-005
-4.32043E-001, 2.72467E-005
-4.30044E-001, 2.74680E-005
-4.28005E-001, 2.76855E-005
-4.26009E-001, 2.78026E-005
-4.24015E-001, 2.78606E-005
-4.21987E-001, 2.78531E-005
-4.20004E-001, 2.77899E-005
-4.17998E-001, 2.76743E-005
-4.16002E-001, 2.74920E-005
-4.14000E-001, 2.72425E-005
-4.12010E-001, 2.69286E-005
-4.09990E-001, 2.65548E-005
-4.07996E-001, 2.61325E-005
-4.05992E-001, 2.56493E-005
-4.04004E-001, 2.51135E-005
-4.02007E-001, 2.45334E-005
-4.00017E-001, 2.39068E-005
-3.98012E-001, 2.32432E-005
-3.95988E-001, 2.25457E-005
-3.93993E-001, 2.18229E-005
-3.92005E-001, 2.10719E-005
-3.90002E-001, 2.03007E-005
-3.88004E-001, 1.95130E-005
-3.85992E-001, 1.87190E-005
-3.83986E-001, 1.79261E-005
-3.81990E-001, 1.71422E-005
-3.79991E-001, 1.63700E-005
-3.77991E-001, 1.56167E-005
-3.76007E-001, 1.48784E-005
-3.74017E-001, 1.41527E-005
-3.71999E-001, 1.34422E-005
-3.70001E-001, 1.27482E-005
-3.68005E-001, 1.20596E-005
-3.66008E-001, 1.13895E-005
-3.64007E-001, 1.07362E-005
-3.62016E-001, 1.01109E-005
-3.59988E-001, 9.51914E-006
-3.57992E-001, 8.95525E-006
-3.55983E-001, 8.41558E-006
-3.54008E-001, 7.88557E-006
-3.52002E-001, 7.35688E-006
-3.50017E-001, 6.86041E-006
-3.48013E-001, 6.38362E-006
-3.46008E-001, 5.92246E-006
-3.44001E-001, 5.47789E-006
-3.42016E-001, 5.04207E-006
-3.40011E-001, 4.61696E-006
-3.38026E-001, 4.21065E-006
-3.36010E-001, 3.82960E-006
-3.34014E-001, 3.47181E-006
-3.31996E-001, 3.12872E-006
-3.30012E-001, 2.79577E-006
-3.28016E-001, 2.46982E-006
-3.26019E-001, 2.14906E-006
-3.24037E-001, 1.84021E-006
-3.22034E-001, 1.54766E-006
-3.20020E-001, 1.26148E-006
-3.18019E-001, 9.83550E-007
-3.16025E-001, 7.13463E-007
-3.14020E-001, 4.65947E-007
-3.12028E-001, 2.17080E-007
-3.10025E-001, -1.70477E-008
-3.08000E-001, -2.37609E-007
-3.05995E-001, -4.46968E-007
-3.04000E-001, -6.52770E-007
-3.02010E-001, -8.53449E-007
-3.00022E-001, -1.04949E-006
-2.98045E-001, -1.25913E-006
-2.96046E-001, -1.44764E-006
-2.94035E-001, -1.63143E-006
-2.92029E-001, -1.80368E-006
-2.90046E-001, -1.96545E-006
-2.88040E-001, -2.11922E-006
-2.86038E-001, -2.26586E-006
-2.84028E-001, -2.40554E-006
-2.82018E-001, -2.53723E-006
-2.80009E-001, -2.66112E-006
-2.78017E-001, -2.77971E-006
-2.76032E-001, -2.89305E-006
-2.74039E-001, -3.00516E-006
-2.72039E-001, -3.11326E-006
-2.70042E-001, -3.21552E-006
-2.67979E-001, -3.30305E-006
-2.65975E-001, -3.39429E-006
-2.63976E-001, -3.48282E-006
-2.61980E-001, -3.56916E-006
-2.59994E-001, -3.64870E-006
-2.57978E-001, -3.71665E-006
-2.55961E-001, -3.77527E-006
-2.53968E-001, -3.82738E-006
-2.51968E-001, -3.87656E-006
-2.49969E-001, -3.92692E-006
-2.47984E-001, -3.97809E-006
-2.45996E-001, -4.02495E-006
-2.44008E-001, -4.06959E-006
-2.41997E-001, -4.11148E-006
-2.40000E-001, -4.14750E-006
-2.37994E-001, -4.17769E-006
-2.35984E-001, -4.20350E-006
-2.33992E-001, -4.22368E-006
-2.31986E-001, -4.23263E-006
-2.29993E-001, -4.23521E-006
-2.27980E-001, -4.23516E-006
-2.25991E-001, -4.23654E-006
-2.23988E-001, -4.23448E-006
-2.21996E-001, -4.22930E-006
-2.19980E-001, -4.21534E-006
-2.17969E-001, -4.19993E-006
-2.15972E-001, -4.17265E-006
-2.13987E-001, -4.13825E-006
-2.11986E-001, -4.08957E-006
-2.09969E-001, -4.02862E-006
-2.07992E-001, -3.96049E-006
-2.05991E-001, -3.87629E-006
-2.03982E-001, -3.78039E-006
-2.01974E-001, -3.67559E-006
-1.99992E-001, -3.55845E-006
-1.97994E-001, -3.42828E-006
-1.96007E-001, -3.28679E-006
-1.93997E-001, -3.12532E-006
-1.91992E-001, -2.94931E-006
-1.89981E-001, -2.74938E-006
-1.87995E-001, -2.53110E-006
-1.86002E-001, -2.29181E-006
-1.84005E-001, -2.02996E-006
-1.82004E-001, -1.74726E-006
-1.79974E-001, -1.44763E-006
-1.77993E-001, -1.11669E-006
-1.75976E-001, -7.69854E-007
-1.73967E-001, -3.50507E-007
-1.71974E-001, 3.89278E-008
-1.69998E-001, 4.47869E-007
-1.67995E-001, 8.83066E-007
-1.65991E-001, 1.09462E-006
-1.64013E-001, 1.78656E-006
-1.62014E-001, 2.29888E-006
-1.60019E-001, 2.82549E-006
-1.58029E-001, 3.38555E-006
-1.56028E-001, 3.96530E-006
-1.53991E-001, 4.57227E-006
-1.52001E-001, 5.20683E-006
-1.50015E-001, 5.86005E-006
-1.48036E-001, 6.53198E-006
-1.46036E-001, 7.21914E-006
-1.44033E-001, 7.93180E-006
-1.42034E-001, 8.67458E-006
-1.40029E-001, 9.42969E-006
-1.38018E-001, 1.02269E-005
-1.36030E-001, 1.10307E-005
-1.34023E-001, 1.18452E-005
-1.32025E-001, 1.26846E-005
-1.30015E-001, 1.35399E-005
-1.27998E-001, 1.44123E-005
-1.26006E-001, 1.53058E-005
-1.24022E-001, 1.62102E-005
-1.22014E-001, 1.71296E-005
-1.20040E-001, 1.80587E-005
-1.18030E-001, 1.90074E-005
-1.16029E-001, 1.99711E-005
-1.14023E-001, 2.09472E-005
-1.12022E-001, 2.19404E-005
-1.10021E-001, 2.29488E-005
-1.08022E-001, 2.39600E-005
-1.05981E-001, 2.50292E-005
-1.03986E-001, 2.60497E-005
-1.01949E-001, 2.70824E-005
-9.99641E-002, 2.81336E-005
-9.79577E-002, 2.91772E-005
-9.59596E-002, 3.02330E-005
-9.39899E-002, 3.12877E-005
-9.19976E-002, 3.23607E-005
-8.99816E-002, 3.34310E-005
-8.79810E-002, 3.45049E-005
-8.59854E-002, 3.55753E-005
-8.39906E-002, 3.66535E-005
-8.19821E-002, 3.77316E-005
-8.00086E-002, 3.88074E-005
-7.79855E-002, 3.98795E-005
-7.59757E-002, 4.09525E-005
-7.39997E-002, 4.20282E-005
-7.19908E-002, 4.30937E-005
-6.99890E-002, 4.41418E-005
-6.79975E-002, 4.51888E-005
-6.60024E-002, 4.62499E-005
-6.39938E-002, 4.72852E-005
-6.20012E-002, 4.83132E-005
-6.00035E-002, 4.93150E-005
-5.80037E-002, 5.03113E-005
-5.60019E-002, 5.13358E-005
-5.40113E-002, 5.22990E-005
-5.19978E-002, 5.32606E-005
-4.99984E-002, 5.42049E-005
-4.79949E-002, 5.51313E-005
-4.60043E-002, 5.60750E-005
-4.40054E-002, 5.69343E-005
-4.20160E-002, 5.77944E-005
-4.00100E-002, 5.86433E-005
-3.79940E-002, 5.94554E-005
-3.60080E-002, 6.02933E-005
-3.40107E-002, 6.10075E-005
-3.20010E-002, 6.17319E-005
-3.00154E-002, 6.25015E-005
-2.80227E-002, 6.31378E-005
-2.59825E-002, 6.37875E-005
-2.40036E-002, 6.43472E-005
-2.19888E-002, 6.49179E-005
-2.00070E-002, 6.54879E-005
-1.80047E-002, 6.59377E-005
-1.60150E-002, 6.63542E-005
-1.40148E-002, 6.67318E-005
-1.19942E-002, 6.70811E-005
-1.00006E-002, 6.73734E-005
-8.00464E-003, 6.75875E-005
-6.01113E-003, 6.77633E-005
-4.02221E-003, 6.79015E-005
-1.99242E-003, 6.79594E-005
1.19343E-005, 6.79552E-005
##END=$$ End of the data block
