##TITLE=Spectrum
##JCAMP-DX=5.00 $$ chemotion-converter-app (1.5.0)
##DATA TYPE=SIZE EXCLUSION CHROMATOGRAPHY
##DATA CLASS=XYPOINTS
##ORIGIN=
##OWNER=
##XUNITS=MILLILITERS
##YUNITS=ARBITRARY UNITS
##LABEL=Vial  71: JM_03 - 1
##COMMENTS=Z:\Jennifer\JM-03\1_Inj_ Vial  71  JM_03 - 1.TXT
##DETEC1=I1: RID 1, RI Signal
##DETEC2=I1: IsoPump 1, Pressure
##COL1=PLgel Precolumn
##COL2=PLgel 5µm Mixed-C
##COL3=PLgel 5µm Mixed-C
##IN_VOL=100.000
##ELUENT=DMAc 0.79g/2.5L LiBr
##FLOW=0.500
##TEMPERATURE=50.000
##DATE=21/07/22
##TIME=14:30:57
##NO_DEC=1
##SOFTWARE=WINGPC
##VERSION=8#1
##OPERATOR=itcp-akt
##FIRSTX=1.29573E+1
##LASTX=1.52058E+1
##MINX=12.9573
##MAXX=15.2058
##MINY=0.0
##MAXY=28.3338
##NPOINTS=273
##FIRSTY=0.00000E+0
##XUNITS=MILLILITERS
##YUNITS=ARBITRARY UNITS
##XYPOINTS=(XY..XY)
1.29573E+1, 0.00000E+0
1.29656E+1, 1.54321E-2
1.29738E+1, 3.05854E-2
1.29821E+1, 4.62413E-2
1.29904E+1, 6.20113E-2
1.29986E+1, 7.75943E-2
1.30069E+1, 9.62842E-2
1.30152E+1, 1.13579E-1
1.30234E+1, 1.35403E-1
1.30317E+1, 1.56856E-1
1.30400E+1, 1.78861E-1
1.30482E+1, 2.06495E-1
1.30565E+1, 2.30304E-1
1.30648E+1, 2.58900E-1
1.30730E+1, 2.86962E-1
1.30813E+1, 3.16754E-1
1.30896E+1, 3.50322E-1
1.30978E+1, 3.82518E-1
1.31061E+1, 4.25786E-1
1.31144E+1, 4.63142E-1
1.31226E+1, 5.00968E-1
1.31309E+1, 5.40054E-1
1.31392E+1, 5.78182E-1
1.31474E+1, 6.27789E-1
1.31557E+1, 6.72844E-1
1.31640E+1, 7.26377E-1
1.31722E+1, 7.72308E-1
1.31805E+1, 8.23958E-1
1.31888E+1, 8.80715E-1
1.31970E+1, 9.33701E-1
1.32053E+1, 1.00049E+0
1.32136E+1, 1.05857E+0
1.32218E+1, 1.12524E+0
1.32301E+1, 1.19356E+0
1.32384E+1, 1.25549E+0
1.32466E+1, 1.34274E+0
1.32549E+1, 1.40921E+0
1.32632E+1, 1.48734E+0
1.32714E+1, 1.56078E+0
1.32797E+1, 1.63371E+0
1.32880E+1, 1.72625E+0
1.32962E+1, 1.79450E+0
1.33045E+1, 1.89632E+0
1.33128E+1, 1.97180E+0
1.33210E+1, 2.07989E+0
1.33293E+1, 2.18639E+0
1.33376E+1, 2.27438E+0
1.33458E+1, 2.39703E+0
1.33541E+1, 2.48784E+0
1.33624E+1, 2.62003E+0
1.33706E+1, 2.72768E+0
1.33789E+1, 2.85773E+0
1.33872E+1, 3.00158E+0
1.33954E+1, 3.13583E+0
1.34037E+1, 3.30713E+0
1.34120E+1, 3.43396E+0
1.34202E+1, 3.60940E+0
1.34285E+1, 3.76645E+0
1.34368E+1, 3.92442E+0
1.34450E+1, 4.13987E+0
1.34533E+1, 4.26855E+0
1.34616E+1, 4.50819E+0
1.34698E+1, 4.67257E+0
1.34781E+1, 4.85895E+0
1.34864E+1, 5.06321E+0
1.34946E+1, 5.21477E+0
1.35029E+1, 5.45931E+0
1.35112E+1, 5.58456E+0
1.35194E+1, 5.80097E+0
1.35277E+1, 5.92012E+0
1.35360E+1, 6.07929E+0
1.35442E+1, 6.24532E+0
1.35525E+1, 6.33948E+0
1.35608E+1, 6.48626E+0
1.35690E+1, 6.56975E+0
1.35773E+1, 6.68412E+0
1.35856E+1, 6.76831E+0
1.35938E+1, 6.84475E+0
1.36021E+1, 6.93337E+0
1.36104E+1, 6.99147E+0
1.36186E+1, 7.05728E+0
1.36269E+1, 7.10161E+0
1.36352E+1, 7.14819E+0
1.36434E+1, 7.19030E+0
1.36517E+1, 7.21929E+0
1.36600E+1, 7.25880E+0
1.36682E+1, 7.28031E+0
1.36765E+1, 7.31970E+0
1.36848E+1, 7.35786E+0
1.36930E+1, 7.39657E+0
1.37013E+1, 7.44938E+0
1.37096E+1, 7.48696E+0
1.37178E+1, 7.55041E+0
1.37261E+1, 7.60640E+0
1.37344E+1, 7.70407E+0
1.37426E+1, 7.80718E+0
1.37509E+1, 7.93254E+0
1.37592E+1, 8.10009E+0
1.37674E+1, 8.23119E+0
1.37757E+1, 8.42202E+0
1.37840E+1, 8.58785E+0
1.37922E+1, 8.79701E+0
1.38005E+1, 9.02221E+0
1.38088E+1, 9.22886E+0
1.38170E+1, 9.54236E+0
1.38253E+1, 9.81191E+0
1.38336E+1, 1.01306E+1
1.38418E+1, 1.04377E+1
1.38501E+1, 1.07577E+1
1.38584E+1, 1.11434E+1
1.38666E+1, 1.14595E+1
1.38749E+1, 1.18998E+1
1.38832E+1, 1.22980E+1
1.38914E+1, 1.27074E+1
1.38997E+1, 1.31409E+1
1.39080E+1, 1.35320E+1
1.39162E+1, 1.40362E+1
1.39245E+1, 1.44456E+1
1.39328E+1, 1.49333E+1
1.39410E+1, 1.53756E+1
1.39493E+1, 1.58384E+1
1.39576E+1, 1.63788E+1
1.39658E+1, 1.68211E+1
1.39741E+1, 1.73213E+1
1.39824E+1, 1.77810E+1
1.39906E+1, 1.82563E+1
1.39989E+1, 1.87362E+1
1.40072E+1, 1.91812E+1
1.40154E+1, 1.96736E+1
1.40237E+1, 2.01378E+1
1.40320E+1, 2.06255E+1
1.40402E+1, 2.10723E+1
1.40485E+1, 2.14984E+1
1.40568E+1, 2.19514E+1
1.40650E+1, 2.23465E+1
1.40733E+1, 2.27927E+1
1.40816E+1, 2.31955E+1
1.40898E+1, 2.35886E+1
1.40981E+1, 2.40297E+1
1.41064E+1, 2.43829E+1
1.41146E+1, 2.47596E+1
1.41229E+1, 2.50930E+1
1.41312E+1, 2.54323E+1
1.41394E+1, 2.57707E+1
1.41477E+1, 2.60494E+1
1.41560E+1, 2.63664E+1
1.41642E+1, 2.66134E+1
1.41725E+1, 2.69113E+1
1.41808E+1, 2.71587E+1
1.41890E+1, 2.73612E+1
1.41973E+1, 2.75780E+1
1.42056E+1, 2.77377E+1
1.42138E+1, 2.79112E+1
1.42221E+1, 2.80357E+1
1.42304E+1, 2.81532E+1
1.42386E+1, 2.82466E+1
1.42469E+1, 2.83022E+1
1.42552E+1, 2.83338E+1
1.42634E+1, 2.83299E+1
1.42717E+1, 2.82996E+1
1.42799E+1, 2.82396E+1
1.42882E+1, 2.81498E+1
1.42965E+1, 2.80012E+1
1.43047E+1, 2.78630E+1
1.43130E+1, 2.76184E+1
1.43213E+1, 2.73905E+1
1.43295E+1, 2.71153E+1
1.43378E+1, 2.67704E+1
1.43461E+1, 2.64625E+1
1.43543E+1, 2.60058E+1
1.43626E+1, 2.56517E+1
1.43709E+1, 2.51256E+1
1.43791E+1, 2.46811E+1
1.43874E+1, 2.41116E+1
1.43957E+1, 2.34589E+1
1.44039E+1, 2.29663E+1
1.44122E+1, 2.22413E+1
1.44205E+1, 2.17012E+1
1.44287E+1, 2.09780E+1
1.44370E+1, 2.03199E+1
1.44453E+1, 1.97029E+1
1.44535E+1, 1.88142E+1
1.44618E+1, 1.82209E+1
1.44701E+1, 1.74206E+1
1.44783E+1, 1.67943E+1
1.44866E+1, 1.61005E+1
1.44949E+1, 1.53436E+1
1.45031E+1, 1.48168E+1
1.45114E+1, 1.39505E+1
1.45197E+1, 1.35136E+1
1.45279E+1, 1.27312E+1
1.45362E+1, 1.21450E+1
1.45445E+1, 1.16464E+1
1.45527E+1, 1.09459E+1
1.45610E+1, 1.05783E+1
1.45693E+1, 9.93385E+0
1.45775E+1, 9.57751E+0
1.45858E+1, 9.04137E+0
1.45941E+1, 8.63256E+0
1.46023E+1, 8.20374E+0
1.46106E+1, 7.72344E+0
1.46189E+1, 7.42798E+0
1.46271E+1, 7.01592E+0
1.46354E+1, 6.72223E+0
1.46437E+1, 6.39330E+0
1.46519E+1, 6.06512E+0
1.46602E+1, 5.83296E+0
1.46685E+1, 5.45778E+0
1.46767E+1, 5.22642E+0
1.46850E+1, 4.94767E+0
1.46933E+1, 4.71536E+0
1.47015E+1, 4.50458E+0
1.47098E+1, 4.24894E+0
1.47181E+1, 4.08842E+0
1.47263E+1, 3.83945E+0
1.47346E+1, 3.65735E+0
1.47429E+1, 3.47247E+0
1.47511E+1, 3.29122E+0
1.47594E+1, 3.14732E+0
1.47677E+1, 2.95598E+0
1.47759E+1, 2.83551E+0
1.47842E+1, 2.66715E+0
1.47925E+1, 2.54800E+0
1.48007E+1, 2.40900E+0
1.48090E+1, 2.26092E+0
1.48173E+1, 2.15509E+0
1.48255E+1, 2.02316E+0
1.48338E+1, 1.92759E+0
1.48421E+1, 1.81399E+0
1.48503E+1, 1.72022E+0
1.48586E+1, 1.62359E+0
1.48669E+1, 1.51420E+0
1.48751E+1, 1.43514E+0
1.48834E+1, 1.34208E+0
1.48917E+1, 1.26642E+0
1.48999E+1, 1.18714E+0
1.49082E+1, 1.11256E+0
1.49165E+1, 1.04899E+0
1.49247E+1, 9.75189E-1
1.49330E+1, 9.13165E-1
1.49413E+1, 8.50363E-1
1.49495E+1, 7.93242E-1
1.49578E+1, 7.39957E-1
1.49661E+1, 6.84572E-1
1.49743E+1, 6.40579E-1
1.49826E+1, 5.90669E-1
1.49909E+1, 5.50223E-1
1.49991E+1, 5.08432E-1
1.50074E+1, 4.64496E-1
1.50157E+1, 4.29780E-1
1.50239E+1, 3.91022E-1
1.50322E+1, 3.58072E-1
1.50405E+1, 3.26185E-1
1.50487E+1, 2.96749E-1
1.50570E+1, 2.70589E-1
1.50653E+1, 2.44062E-1
1.50735E+1, 2.22140E-1
1.50818E+1, 1.97923E-1
1.50901E+1, 1.75299E-1
1.50983E+1, 1.55164E-1
1.51066E+1, 1.36208E-1
1.51149E+1, 1.20736E-1
1.51231E+1, 1.05512E-1
1.51314E+1, 9.35073E-2
1.51397E+1, 8.15945E-2
1.51479E+1, 6.99338E-2
1.51562E+1, 5.95971E-2
1.51645E+1, 4.70282E-2
1.51727E+1, 3.75698E-2
1.51810E+1, 2.76774E-2
1.51893E+1, 1.81025E-2
1.51975E+1, 9.57140E-3
1.52058E+1, 0.00000E+0
##END=$$ End of the data block
