Potential applied (V),Time (s),WE(1).Current (A),WE(1).Potential (V),Scan,Index,Q+,Q-
0.301971435546875,16.5535919582062,-4.32098388671875E-07,0.3033447265625,3,1013,3.68125576758757E-06,-2.15024434030056E-06
0.303955078125,16.5635099581812,-4.25567626953125E-07,0.3052978515625,3,1014,3.68125576758757E-06,-2.15024434030056E-06
0.305938720703125,16.5734279581561,-4.19036865234375E-07,0.307373046875,3,1015,3.68125576758757E-06,-2.15024434030056E-06
0.30792236328125,16.5833459581311,-4.1180419921875E-07,0.30926513671875,3,1016,3.68125576758757E-06,-2.15024434030056E-06
0.309906005859375,16.593263958106,-4.04815673828125E-07,0.311248779296875,3,1017,3.68125576758757E-06,-2.15024434030056E-06
0.3118896484375,16.603181958081,-3.97918701171875E-07,0.313323974609375,3,1018,3.68125576758757E-06,-2.15024434030056E-06
0.313873291015625,16.613099958056,-3.89892578125E-07,0.315216064453125,3,1019,3.68125576758757E-06,-2.15024434030056E-06
0.31585693359375,16.6230179580309,-3.8226318359375E-07,0.31707763671875,3,1020,3.68125576758757E-06,-2.15024434030056E-06
0.317840576171875,16.6329359580059,-3.7451171875E-07,0.319122314453125,3,1021,3.68125576758757E-06,-2.15024434030056E-06
0.31982421875,16.6428539579808,-3.66302490234375E-07,0.321136474609375,3,1022,3.68125576758757E-06,-2.15024434030056E-06
0.321807861328125,16.6527719579558,-3.5791015625E-07,0.323211669921875,3,1023,3.68125576758757E-06,-2.15024434030056E-06
0.32379150390625,16.6626899579308,-3.49029541015625E-07,0.32513427734375,3,1024,3.68125576758757E-06,-2.15024434030056E-06
0.325775146484375,16.6726079579057,-3.40057373046875E-07,0.327056884765625,3,1025,3.68125576758757E-06,-2.15024434030056E-06
0.3277587890625,16.6825259578807,-3.30474853515625E-07,0.329071044921875,3,1026,3.68125576758757E-06,-2.15024434030056E-06
0.329742431640625,16.6924439578556,-3.204345703125E-07,0.331146240234375,3,1027,3.68125576758757E-06,-2.15024434030056E-06
0.33172607421875,16.7023619578306,-3.1072998046875E-07,0.333099365234375,3,1028,3.68125576758757E-06,-2.15024434030056E-06
0.333709716796875,16.7122799578055,-2.99652099609375E-07,0.335113525390625,3,1029,3.68125576758757E-06,-2.15024434030056E-06
0.335693359375,16.7221979577805,-2.89337158203125E-07,0.33709716796875,3,1030,3.68125576758757E-06,-2.15024434030056E-06
0.337677001953125,16.7321159577555,-2.777099609375E-07,0.33892822265625,3,1031,3.68125576758757E-06,-2.15024434030056E-06
0.33966064453125,16.7420339577304,-2.65533447265625E-07,0.340972900390625,3,1032,3.68125576758757E-06,-2.15024434030056E-06
0.341644287109375,16.7519519577054,-2.530517578125E-07,0.343048095703125,3,1033,3.68125576758757E-06,-2.15024434030056E-06
0.3436279296875,16.7618699576803,-2.40020751953125E-07,0.344970703125,3,1034,3.68125576758757E-06,-2.15024434030056E-06
0.345611572265625,16.7717879576553,-2.26593017578125E-07,0.346954345703125,3,1035,3.68125576758757E-06,-2.15024434030056E-06
0.34759521484375,16.7817059576303,-2.12066650390625E-07,0.348907470703125,3,1036,3.68125576758757E-06,-2.15024434030056E-06
0.349578857421875,16.7916239576052,-1.97479248046875E-07,0.350799560546875,3,1037,3.68125576758757E-06,-2.15024434030056E-06
0.3515625,16.8015419575802,-1.8170166015625E-07,0.352813720703125,3,1038,3.68125576758757E-06,-2.15024434030056E-06
0.353546142578125,16.8114599575551,-1.650390625E-07,0.3548583984375,3,1039,3.68125576758757E-06,-2.15024434030056E-06
0.35552978515625,16.8213779575301,-1.483154296875E-07,0.356842041015625,3,1040,3.68125576758757E-06,-2.15024434030056E-06
0.357513427734375,16.8312959575051,-1.3018798828125E-07,0.35882568359375,3,1041,3.68125576758757E-06,-2.15024434030056E-06
0.3594970703125,16.84121395748,-1.11053466796875E-07,0.36090087890625,3,1042,3.68125576758757E-06,-2.15024434030056E-06
0.361480712890625,16.851131957455,-9.0972900390625E-08,0.362823486328125,3,1043,3.68125576758757E-06,-2.15024434030056E-06
0.36346435546875,16.8610499574299,-6.976318359375E-08,0.36468505859375,3,1044,3.68125576758757E-06,-2.15024434030056E-06
0.365447998046875,16.8709679574049,-4.8248291015625E-08,0.366790771484375,3,1045,3.68125576758757E-06,-2.15024434030056E-06
0.367431640625,16.8808859573799,-2.39166259765625E-08,0.368743896484375,3,1046,3.68125576758757E-06,-2.15024434030056E-06
0.369415283203125,16.8908039573548,-9.765625E-10,0.3707275390625,3,1047,3.68125576758757E-06,-2.15024434030056E-06
0.37139892578125,16.9007219573298,2.54302978515625E-08,0.372802734375,3,1048,3.68125576758757E-06,-2.15024434030056E-06
0.373382568359375,16.9106399573047,5.0750732421875E-08,0.374755859375,3,1049,3.68125576758757E-06,-2.15024434030056E-06
0.3753662109375,16.9205579572797,7.9132080078125E-08,0.376800537109375,3,1050,3.68125576758757E-06,-2.15024434030056E-06
0.377349853515625,16.9304759572547,1.06536865234375E-07,0.378662109375,3,1051,3.68125576758757E-06,-2.15024434030056E-06
0.37933349609375,16.9403939572296,1.38427734375E-07,0.38067626953125,3,1052,3.68125576758757E-06,-2.15024434030056E-06
0.381317138671875,16.9503119572046,1.68182373046875E-07,0.382537841796875,3,1053,3.68125576758757E-06,-2.15024434030056E-06
0.38330078125,16.9602299571795,2.02056884765625E-07,0.384674072265625,3,1054,3.68125576758757E-06,-2.15024434030056E-06
0.385284423828125,16.9701479571545,2.35687255859375E-07,0.38665771484375,3,1055,3.68125576758757E-06,-2.15024434030056E-06
0.38726806640625,16.9800659571295,2.71636962890625E-07,0.388641357421875,3,1056,3.68125576758757E-06,-2.15024434030056E-06
0.389251708984375,16.9899839571044,3.079833984375E-07,0.390625,3,1057,3.68125576758757E-06,-2.15024434030056E-06
0.3912353515625,16.9999019570794,3.470458984375E-07,0.392425537109375,3,1058,3.68125576758757E-06,-2.15024434030056E-06
0.393218994140625,17.0098199570543,3.865966796875E-07,0.39459228515625,3,1059,3.68125576758757E-06,-2.15024434030056E-06
0.39520263671875,17.0197379570293,4.28131103515625E-07,0.396514892578125,3,1060,3.68125576758757E-06,-2.15024434030056E-06
0.397186279296875,17.0296559570043,4.70916748046875E-07,0.3985595703125,3,1061,3.68125576758757E-06,-2.15024434030056E-06
0.399169921875,17.0395739569792,5.1446533203125E-07,0.40057373046875,3,1062,3.68125576758757E-06,-2.15024434030056E-06
0.401153564453125,17.0494919569542,5.599365234375E-07,0.4024658203125,3,1063,3.68125576758757E-06,-2.15024434030056E-06
0.40313720703125,17.0594099569291,6.0601806640625E-07,0.404510498046875,3,1064,3.68125576758757E-06,-2.15024434030056E-06
0.405120849609375,17.0693279569041,6.5399169921875E-07,0.40643310546875,3,1065,3.68125576758757E-06,-2.15024434030056E-06
0.4071044921875,17.079245956879,7.025146484375E-07,0.40838623046875,3,1066,3.68125576758757E-06,-2.15024434030056E-06
0.409088134765625,17.089163956854,7.53173828125E-07,0.410308837890625,3,1067,3.68125576758757E-06,-2.15024434030056E-06
0.41107177734375,17.099081956829,8.026123046875E-07,0.4122314453125,3,1068,3.68125576758757E-06,-2.15024434030056E-06
0.413055419921875,17.1089999568039,8.563232421875E-07,0.414306640625,3,1069,3.68125576758757E-06,-2.15024434030056E-06
0.4150390625,17.1189179567789,9.075927734375E-07,0.41632080078125,3,1070,3.68125576758757E-06,-2.15024434030056E-06
0.417022705078125,17.1288359567538,9.6221923828125E-07,0.418243408203125,3,1071,3.68125576758757E-06,-2.15024434030056E-06
0.41900634765625,17.1387539567288,1.0150146484375E-06,0.42034912109375,3,1072,3.68125576758757E-06,-2.15024434030056E-06
0.420989990234375,17.1486719567038,1.07025146484375E-06,0.42218017578125,3,1073,3.68125576758757E-06,-2.15024434030056E-06
0.4229736328125,17.1585899566787,1.124267578125E-06,0.42431640625,3,1074,3.68125576758757E-06,-2.15024434030056E-06
0.424957275390625,17.1685079566537,1.1810302734375E-06,0.426361083984375,3,1075,3.68125576758757E-06,-2.15024434030056E-06
0.42694091796875,17.1784259566286,1.23443603515625E-06,0.428314208984375,3,1076,3.68125576758757E-06,-2.15024434030056E-06
0.428924560546875,17.1883439566036,1.2884521484375E-06,0.43023681640625,3,1077,3.68125576758757E-06,-2.15024434030056E-06
0.430908203125,17.1982619565786,1.34368896484375E-06,0.43212890625,3,1078,3.68125576758757E-06,-2.15024434030056E-06
0.432891845703125,17.2081799565535,1.39739990234375E-06,0.43402099609375,3,1079,3.68125576758757E-06,-2.15024434030056E-06
0.43487548828125,17.2180979565285,1.45050048828125E-06,0.43609619140625,3,1080,3.68125576758757E-06,-2.15024434030056E-06
0.436859130859375,17.2280159565034,1.502685546875E-06,0.438140869140625,3,1081,3.68125576758757E-06,-2.15024434030056E-06
0.4388427734375,17.2379339564784,1.55426025390625E-06,0.4400634765625,3,1082,3.68125576758757E-06,-2.15024434030056E-06
0.440826416015625,17.2478519564534,1.6046142578125E-06,0.4420166015625,3,1083,3.68125576758757E-06,-2.15024434030056E-06
0.44281005859375,17.2577699564283,1.6534423828125E-06,0.44403076171875,3,1084,3.68125576758757E-06,-2.15024434030056E-06
0.444793701171875,17.2676879564033,1.70196533203125E-06,0.445892333984375,3,1085,3.68125576758757E-06,-2.15024434030056E-06
0.44677734375,17.2776059563782,1.74774169921875E-06,0.4478759765625,3,1086,3.68125576758757E-06,-2.15024434030056E-06
0.448760986328125,17.2875239563532,1.7926025390625E-06,0.449981689453125,3,1087,3.68125576758757E-06,-2.15024434030056E-06
0.45074462890625,17.2974419563282,1.83502197265625E-06,0.451995849609375,3,1088,3.68125576758757E-06,-2.15024434030056E-06
0.452728271484375,17.3073599563031,1.87652587890625E-06,0.454010009765625,3,1089,3.68125576758757E-06,-2.15024434030056E-06
0.4547119140625,17.3172779562781,1.9158935546875E-06,0.4559326171875,3,1090,3.68125576758757E-06,-2.15024434030056E-06
0.456695556640625,17.327195956253,1.95281982421875E-06,0.4580078125,3,1091,3.68125576758757E-06,-2.15024434030056E-06
0.45867919921875,17.337113956228,1.98760986328125E-06,0.4598388671875,3,1092,3.68125576758757E-06,-2.15024434030056E-06
0.460662841796875,17.347031956203,2.01934814453125E-06,0.462005615234375,3,1093,3.68125576758757E-06,-2.15024434030056E-06
0.462646484375,17.3569499561779,2.05108642578125E-06,0.463958740234375,3,1094,3.68125576758757E-06,-2.15024434030056E-06
0.464630126953125,17.3668679561529,2.0794677734375E-06,0.46600341796875,3,1095,3.68125576758757E-06,-2.15024434030056E-06
0.46661376953125,17.3767859561278,2.10357666015625E-06,0.467742919921875,3,1096,3.68125576758757E-06,-2.15024434030056E-06
0.468597412109375,17.3867039561028,2.12860107421875E-06,0.46978759765625,3,1097,3.68125576758757E-06,-2.15024434030056E-06
0.4705810546875,17.3966219560778,2.1502685546875E-06,0.471893310546875,3,1098,3.68125576758757E-06,-2.15024434030056E-06
0.472564697265625,17.4065399560527,2.17132568359375E-06,0.473785400390625,3,1099,3.68125576758757E-06,-2.15024434030056E-06
0.47454833984375,17.4164579560277,2.1875E-06,0.47576904296875,3,1100,3.68125576758757E-06,-2.15024434030056E-06
0.476531982421875,17.4263759560026,2.2039794921875E-06,0.47784423828125,3,1101,3.68125576758757E-06,-2.15024434030056E-06
0.478515625,17.4362939559776,2.21588134765625E-06,0.479827880859375,3,1102,3.68125576758757E-06,-2.15024434030056E-06
0.480499267578125,17.4462119559525,2.22900390625E-06,0.481689453125,3,1103,3.68125576758757E-06,-2.15024434030056E-06
0.48248291015625,17.4561299559275,2.237548828125E-06,0.48370361328125,3,1104,3.68125576758757E-06,-2.15024434030056E-06
0.484466552734375,17.4660479559025,2.24609375E-06,0.48577880859375,3,1105,3.68125576758757E-06,-2.15024434030056E-06
0.4864501953125,17.4759659558774,2.2515869140625E-06,0.487701416015625,3,1106,3.68125576758757E-06,-2.15024434030056E-06
0.488433837890625,17.4858839558524,2.2564697265625E-06,0.4896240234375,3,1107,3.68125576758757E-06,-2.15024434030056E-06
0.49041748046875,17.4958019558273,2.25921630859375E-06,0.491729736328125,3,1108,3.68125576758757E-06,-2.15024434030056E-06
0.492401123046875,17.5057199558023,2.2607421875E-06,0.49359130859375,3,1109,3.68125576758757E-06,-2.15024434030056E-06
0.494384765625,17.5156379557773,2.26104736328125E-06,0.49560546875,3,1110,3.68125576758757E-06,-2.15024434030056E-06
0.496368408203125,17.5255559557522,2.25921630859375E-06,0.497589111328125,3,1111,3.68125576758757E-06,-2.15024434030056E-06
0.49835205078125,17.5354739557272,2.25677490234375E-06,0.499725341796875,3,1112,3.68125576758757E-06,-2.15024434030056E-06
0.500335693359375,17.5453919557021,2.25372314453125E-06,0.501617431640625,3,1113,3.68125576758757E-06,-2.15024434030056E-06
0.5023193359375,17.5553099556771,2.2479248046875E-06,0.5035400390625,3,1114,3.68125576758757E-06,-2.15024434030056E-06
0.504302978515625,17.5652279556521,2.242431640625E-06,0.505523681640625,3,1115,3.68125576758757E-06,-2.15024434030056E-06
0.50628662109375,17.575145955627,2.23541259765625E-06,0.50750732421875,3,1116,3.68125576758757E-06,-2.15024434030056E-06
0.508270263671875,17.585063955602,2.22808837890625E-06,0.509521484375,3,1117,3.68125576758757E-06,-2.15024434030056E-06
0.51025390625,17.5949819555769,2.21954345703125E-06,0.511474609375,3,1118,3.68125576758757E-06,-2.15024434030056E-06
0.512237548828125,17.6048999555519,2.21160888671875E-06,0.5135498046875,3,1119,3.68125576758757E-06,-2.15024434030056E-06
0.51422119140625,17.6148179555269,2.20123291015625E-06,0.515533447265625,3,1120,3.68125576758757E-06,-2.15024434030056E-06
0.516204833984375,17.6247359555018,2.19207763671875E-06,0.517364501953125,3,1121,3.68125576758757E-06,-2.15024434030056E-06
0.5181884765625,17.6346539554768,2.18109130859375E-06,0.519256591796875,3,1122,3.68125576758757E-06,-2.15024434030056E-06
0.520172119140625,17.6445719554517,2.1710205078125E-06,0.5213623046875,3,1123,3.68125576758757E-06,-2.15024434030056E-06
0.52215576171875,17.6544899554267,2.15911865234375E-06,0.523284912109375,3,1124,3.68125576758757E-06,-2.15024434030056E-06
0.524139404296875,17.6644079554017,2.1484375E-06,0.525390625,3,1125,3.68125576758757E-06,-2.15024434030056E-06
0.526123046875,17.6743259553766,2.13623046875E-06,0.527313232421875,3,1126,3.68125576758757E-06,-2.15024434030056E-06
0.528106689453125,17.6842439553516,2.1234130859375E-06,0.529266357421875,3,1127,3.68125576758757E-06,-2.15024434030056E-06
0.53009033203125,17.6941619553265,2.11151123046875E-06,0.53131103515625,3,1128,3.68125576758757E-06,-2.15024434030056E-06
0.532073974609375,17.7040799553015,2.0989990234375E-06,0.533233642578125,3,1129,3.68125576758757E-06,-2.15024434030056E-06
0.5340576171875,17.7139979552765,2.0867919921875E-06,0.535247802734375,3,1130,3.68125576758757E-06,-2.15024434030056E-06
0.536041259765625,17.7239159552514,2.07489013671875E-06,0.537322998046875,3,1131,3.68125576758757E-06,-2.15024434030056E-06
0.53802490234375,17.7338339552264,2.0623779296875E-06,0.5391845703125,3,1132,3.68125576758757E-06,-2.15024434030056E-06
0.540008544921875,17.7437519552013,2.049560546875E-06,0.541168212890625,3,1133,3.68125576758757E-06,-2.15024434030056E-06
0.5419921875,17.7536699551763,2.03643798828125E-06,0.543212890625,3,1134,3.68125576758757E-06,-2.15024434030056E-06
0.543975830078125,17.7635879551513,2.0245361328125E-06,0.545166015625,3,1135,3.68125576758757E-06,-2.15024434030056E-06
0.54595947265625,17.7735059551262,2.0111083984375E-06,0.54718017578125,3,1136,3.68125576758757E-06,-2.15024434030056E-06
0.547943115234375,17.7834239551012,1.99981689453125E-06,0.549102783203125,3,1137,3.68125576758757E-06,-2.15024434030056E-06
0.5499267578125,17.7933419550761,1.9866943359375E-06,0.55108642578125,3,1138,3.68125576758757E-06,-2.15024434030056E-06
0.551910400390625,17.8032599550511,1.97540283203125E-06,0.55316162109375,3,1139,3.68125576758757E-06,-2.15024434030056E-06
0.55389404296875,17.813177955026,1.96197509765625E-06,0.555145263671875,3,1140,3.68125576758757E-06,-2.15024434030056E-06
0.555877685546875,17.823095955001,1.95037841796875E-06,0.557159423828125,3,1141,3.68125576758757E-06,-2.15024434030056E-06
0.557861328125,17.833013954976,1.93878173828125E-06,0.559112548828125,3,1142,3.68125576758757E-06,-2.15024434030056E-06
0.559844970703125,17.8429319549509,1.9268798828125E-06,0.561004638671875,3,1143,3.68125576758757E-06,-2.15024434030056E-06
0.56182861328125,17.8528499549259,1.915283203125E-06,0.563079833984375,3,1144,3.68125576758757E-06,-2.15024434030056E-06
0.563812255859375,17.8627679549008,1.9036865234375E-06,0.564971923828125,3,1145,3.68125576758757E-06,-2.15024434030056E-06
0.5657958984375,17.8726859548758,1.8927001953125E-06,0.5670166015625,3,1146,3.68125576758757E-06,-2.15024434030056E-06
0.567779541015625,17.8826039548508,1.88201904296875E-06,0.569091796875,3,1147,3.68125576758757E-06,-2.15024434030056E-06
0.56976318359375,17.8925219548257,1.87103271484375E-06,0.5709228515625,3,1148,3.68125576758757E-06,-2.15024434030056E-06
0.571746826171875,17.9024399548007,1.86004638671875E-06,0.572906494140625,3,1149,3.68125576758757E-06,-2.15024434030056E-06
0.57373046875,17.9123579547756,1.84906005859375E-06,0.57489013671875,3,1150,3.68125576758757E-06,-2.15024434030056E-06
0.575714111328125,17.9222759547506,1.8389892578125E-06,0.57696533203125,3,1151,3.68125576758757E-06,-2.15024434030056E-06
0.57769775390625,17.9321939547256,1.82861328125E-06,0.578948974609375,3,1152,3.68125576758757E-06,-2.15024434030056E-06
0.579681396484375,17.9421119547005,1.81854248046875E-06,0.58087158203125,3,1153,3.68125576758757E-06,-2.15024434030056E-06
0.5816650390625,17.9520299546755,1.807861328125E-06,0.582763671875,3,1154,3.68125576758757E-06,-2.15024434030056E-06
0.583648681640625,17.9619479546504,1.79901123046875E-06,0.584747314453125,3,1155,3.68125576758757E-06,-2.15024434030056E-06
0.58563232421875,17.9718659546254,1.7889404296875E-06,0.5867919921875,3,1156,3.68125576758757E-06,-2.15024434030056E-06
0.587615966796875,17.9817839546004,1.77978515625E-06,0.58880615234375,3,1157,3.68125576758757E-06,-2.15024434030056E-06
0.589599609375,17.9917019545753,1.7706298828125E-06,0.59075927734375,3,1158,3.68125576758757E-06,-2.15024434030056E-06
0.591583251953125,18.0016199545503,1.7608642578125E-06,0.5927734375,3,1159,3.68125576758757E-06,-2.15024434030056E-06
0.59356689453125,18.0115379545252,1.75262451171875E-06,0.59478759765625,3,1160,3.68125576758757E-06,-2.15024434030056E-06
0.595550537109375,18.0214559545002,1.7431640625E-06,0.596771240234375,3,1161,3.68125576758757E-06,-2.15024434030056E-06
0.5975341796875,18.0313739544752,1.7352294921875E-06,0.59881591796875,3,1162,3.68125576758757E-06,-2.15024434030056E-06
0.599517822265625,18.0412919544501,1.7266845703125E-06,0.60064697265625,3,1163,3.68125576758757E-06,-2.15024434030056E-06
0.60150146484375,18.0512099544251,1.71783447265625E-06,0.602813720703125,3,1164,3.68125576758757E-06,-2.15024434030056E-06
0.603485107421875,18.0611279544,1.71051025390625E-06,0.60467529296875,3,1165,3.68125576758757E-06,-2.15024434030056E-06
0.60546875,18.071045954375,1.7022705078125E-06,0.606536865234375,3,1166,3.68125576758757E-06,-2.15024434030056E-06
0.607452392578125,18.08096395435,1.6949462890625E-06,0.608551025390625,3,1167,3.68125576758757E-06,-2.15024434030056E-06
0.60943603515625,18.0908819543249,1.68731689453125E-06,0.610595703125,3,1168,3.68125576758757E-06,-2.15024434030056E-06
0.611419677734375,18.1007999542999,1.6796875E-06,0.612579345703125,3,1169,3.68125576758757E-06,-2.15024434030056E-06
0.6134033203125,18.1107179542748,1.67205810546875E-06,0.61456298828125,3,1170,3.68125576758757E-06,-2.15024434030056E-06
0.615386962890625,18.1206359542498,1.6650390625E-06,0.616607666015625,3,1171,3.68125576758757E-06,-2.15024434030056E-06
0.61737060546875,18.1305539542248,1.65740966796875E-06,0.61859130859375,3,1172,3.68125576758757E-06,-2.15024434030056E-06
0.619354248046875,18.1404719541997,1.6510009765625E-06,0.620574951171875,3,1173,3.68125576758757E-06,-2.15024434030056E-06
0.621337890625,18.1503899541747,1.64337158203125E-06,0.622528076171875,3,1174,3.68125576758757E-06,-2.15024434030056E-06
0.623321533203125,18.1603079541496,1.6375732421875E-06,0.624359130859375,3,1175,3.68125576758757E-06,-2.15024434030056E-06
0.62530517578125,18.1702259541246,1.6314697265625E-06,0.62646484375,3,1176,3.68125576758757E-06,-2.15024434030056E-06
0.627288818359375,18.1801439540995,1.624755859375E-06,0.628387451171875,3,1177,3.68125576758757E-06,-2.15024434030056E-06
0.6292724609375,18.1900619540745,1.61865234375E-06,0.630401611328125,3,1178,3.68125576758757E-06,-2.15024434030056E-06
0.631256103515625,18.1999799540495,1.612548828125E-06,0.632476806640625,3,1179,3.68125576758757E-06,-2.15024434030056E-06
0.63323974609375,18.2098979540244,1.60614013671875E-06,0.634429931640625,3,1180,3.68125576758757E-06,-2.15024434030056E-06
0.635223388671875,18.2198159539994,1.600341796875E-06,0.63641357421875,3,1181,3.68125576758757E-06,-2.15024434030056E-06
0.63720703125,18.2297339539743,1.59393310546875E-06,0.638336181640625,3,1182,3.68125576758757E-06,-2.15024434030056E-06
0.639190673828125,18.2396519539493,1.58935546875E-06,0.6405029296875,3,1183,3.68125576758757E-06,-2.15024434030056E-06
0.64117431640625,18.2495699539243,1.58294677734375E-06,0.6422119140625,3,1184,3.68125576758757E-06,-2.15024434030056E-06
0.643157958984375,18.2594879538992,1.57806396484375E-06,0.644287109375,3,1185,3.68125576758757E-06,-2.15024434030056E-06
0.6451416015625,18.2694059538742,1.57318115234375E-06,0.64642333984375,3,1186,3.68125576758757E-06,-2.15024434030056E-06
0.647125244140625,18.2793239538491,1.5673828125E-06,0.648406982421875,3,1187,3.68125576758757E-06,-2.15024434030056E-06
0.64910888671875,18.2892419538241,1.5625E-06,0.650390625,3,1188,3.68125576758757E-06,-2.15024434030056E-06
0.651092529296875,18.2991599537991,1.5570068359375E-06,0.652313232421875,3,1189,3.68125576758757E-06,-2.15024434030056E-06
0.653076171875,18.309077953774,1.552734375E-06,0.654144287109375,3,1190,3.68125576758757E-06,-2.15024434030056E-06
0.655059814453125,18.318995953749,1.54754638671875E-06,0.65618896484375,3,1191,3.68125576758757E-06,-2.15024434030056E-06
0.65704345703125,18.3289139537239,1.54327392578125E-06,0.658233642578125,3,1192,3.68125576758757E-06,-2.15024434030056E-06
0.659027099609375,18.3388319536989,1.5386962890625E-06,0.660125732421875,3,1193,3.68125576758757E-06,-2.15024434030056E-06
0.6610107421875,18.3487499536739,1.53472900390625E-06,0.662139892578125,3,1194,3.68125576758757E-06,-2.15024434030056E-06
0.662994384765625,18.3586679536488,1.52984619140625E-06,0.6640625,3,1195,3.68125576758757E-06,-2.15024434030056E-06
0.66497802734375,18.3685859536238,1.52618408203125E-06,0.6661376953125,3,1196,3.68125576758757E-06,-2.15024434030056E-06
0.666961669921875,18.3785039535987,1.52130126953125E-06,0.668121337890625,3,1197,3.68125576758757E-06,-2.15024434030056E-06
0.6689453125,18.3884219535737,1.51885986328125E-06,0.670166015625,3,1198,3.68125576758757E-06,-2.15024434030056E-06
0.670928955078125,18.3983399535487,1.513671875E-06,0.672088623046875,3,1199,3.68125576758757E-06,-2.15024434030056E-06
0.67291259765625,18.4082579535236,1.510009765625E-06,0.674072265625,3,1200,3.68125576758757E-06,-2.15024434030056E-06
0.674896240234375,18.4181759534986,1.50634765625E-06,0.676055908203125,3,1201,3.68125576758757E-06,-2.15024434030056E-06
0.6768798828125,18.4280939534735,1.502685546875E-06,0.678070068359375,3,1202,3.68125576758757E-06,-2.15024434030056E-06
0.678863525390625,18.4380119534485,1.4990234375E-06,0.6800537109375,3,1203,3.68125576758757E-06,-2.15024434030056E-06
0.68084716796875,18.4479299534235,1.49566650390625E-06,0.6820068359375,3,1204,3.68125576758757E-06,-2.15024434030056E-06
0.682830810546875,18.4578479533984,1.49261474609375E-06,0.6839599609375,3,1205,3.68125576758757E-06,-2.15024434030056E-06
0.684814453125,18.4677659533734,1.4892578125E-06,0.68597412109375,3,1206,3.68125576758757E-06,-2.15024434030056E-06
0.686798095703125,18.4776839533483,1.48590087890625E-06,0.68798828125,3,1207,3.68125576758757E-06,-2.15024434030056E-06
0.68878173828125,18.4876019533233,1.4825439453125E-06,0.69000244140625,3,1208,3.68125576758757E-06,-2.15024434030056E-06
0.690765380859375,18.4975199532983,1.4801025390625E-06,0.691925048828125,3,1209,3.68125576758757E-06,-2.15024434030056E-06
0.6927490234375,18.5074379532732,1.47674560546875E-06,0.69390869140625,3,1210,3.68125576758757E-06,-2.15024434030056E-06
0.694732666015625,18.5173559532482,1.474609375E-06,0.69586181640625,3,1211,3.68125576758757E-06,-2.15024434030056E-06
0.69671630859375,18.5272739532231,1.470947265625E-06,0.69793701171875,3,1212,3.68125576758757E-06,-2.15024434030056E-06
0.698699951171875,18.5371919531981,1.46881103515625E-06,0.6998291015625,3,1213,3.68125576758757E-06,-2.15024434030056E-06
0.70068359375,18.547109953173,1.466064453125E-06,0.7017822265625,3,1214,3.68125576758757E-06,-2.15024434030056E-06
0.698699951171875,18.557027953148,1.44134521484375E-06,0.699859619140625,3,1215,3.68125576758757E-06,-2.15024434030056E-06
0.69671630859375,18.566945953123,1.42181396484375E-06,0.697845458984375,3,1216,3.68125576758757E-06,-2.15024434030056E-06
0.694732666015625,18.5768639530979,1.40411376953125E-06,0.69598388671875,3,1217,3.68125576758757E-06,-2.15024434030056E-06
0.6927490234375,18.5867819530729,1.38763427734375E-06,0.69390869140625,3,1218,3.68125576758757E-06,-2.15024434030056E-06
0.690765380859375,18.5966999530478,1.37298583984375E-06,0.69195556640625,3,1219,3.68125576758757E-06,-2.15024434030056E-06
0.68878173828125,18.6066179530228,1.35894775390625E-06,0.6898193359375,3,1220,3.68125576758757E-06,-2.15024434030056E-06
0.686798095703125,18.6165359529978,1.34613037109375E-06,0.687896728515625,3,1221,3.68125576758757E-06,-2.15024434030056E-06
0.684814453125,18.6264539529727,1.3330078125E-06,0.68609619140625,3,1222,3.68125576758757E-06,-2.15024434030056E-06
0.682830810546875,18.6363719529477,1.3214111328125E-06,0.684112548828125,3,1223,3.68125576758757E-06,-2.15024434030056E-06
0.68084716796875,18.6462899529226,1.3104248046875E-06,0.682037353515625,3,1224,3.68125576758757E-06,-2.15024434030056E-06
0.678863525390625,18.6562079528976,1.29913330078125E-06,0.67999267578125,3,1225,3.68125576758757E-06,-2.15024434030056E-06
0.6768798828125,18.6661259528726,1.28753662109375E-06,0.67803955078125,3,1226,3.68125576758757E-06,-2.15024434030056E-06
0.674896240234375,18.6760439528475,1.27838134765625E-06,0.675994873046875,3,1227,3.68125576758757E-06,-2.15024434030056E-06
0.67291259765625,18.6859619528225,1.26800537109375E-06,0.674102783203125,3,1228,3.68125576758757E-06,-2.15024434030056E-06
0.670928955078125,18.6958799527974,1.258544921875E-06,0.672119140625,3,1229,3.68125576758757E-06,-2.15024434030056E-06
0.6689453125,18.7057979527724,1.248779296875E-06,0.670166015625,3,1230,3.68125576758757E-06,-2.15024434030056E-06
0.666961669921875,18.7157159527474,1.240234375E-06,0.668212890625,3,1231,3.68125576758757E-06,-2.15024434030056E-06
0.66497802734375,18.7256339527223,1.231689453125E-06,0.666107177734375,3,1232,3.68125576758757E-06,-2.15024434030056E-06
0.662994384765625,18.7355519526973,1.22283935546875E-06,0.664093017578125,3,1233,3.68125576758757E-06,-2.15024434030056E-06
0.6610107421875,18.7454699526722,1.2139892578125E-06,0.66204833984375,3,1234,3.68125576758757E-06,-2.15024434030056E-06
0.659027099609375,18.7553879526472,1.20574951171875E-06,0.660308837890625,3,1235,3.68125576758757E-06,-2.15024434030056E-06
0.65704345703125,18.7653059526222,1.19720458984375E-06,0.658233642578125,3,1236,3.68125576758757E-06,-2.15024434030056E-06
0.655059814453125,18.7752239525971,1.1895751953125E-06,0.656158447265625,3,1237,3.68125576758757E-06,-2.15024434030056E-06
0.653076171875,18.7851419525721,1.18255615234375E-06,0.654296875,3,1238,3.68125576758757E-06,-2.15024434030056E-06
0.651092529296875,18.795059952547,1.17340087890625E-06,0.6522216796875,3,1239,3.68125576758757E-06,-2.15024434030056E-06
0.64910888671875,18.804977952522,1.16668701171875E-06,0.65020751953125,3,1240,3.68125576758757E-06,-2.15024434030056E-06
0.647125244140625,18.814895952497,1.15814208984375E-06,0.648223876953125,3,1241,3.68125576758757E-06,-2.15024434030056E-06
0.6451416015625,18.8248139524719,1.15203857421875E-06,0.646331787109375,3,1242,3.68125576758757E-06,-2.15024434030056E-06
0.643157958984375,18.8347319524469,1.14471435546875E-06,0.64434814453125,3,1243,3.68125576758757E-06,-2.15024434030056E-06
0.64117431640625,18.8446499524218,1.1370849609375E-06,0.642333984375,3,1244,3.68125576758757E-06,-2.15024434030056E-06
0.639190673828125,18.8545679523968,1.13067626953125E-06,0.640350341796875,3,1245,3.68125576758757E-06,-2.15024434030056E-06
0.63720703125,18.8644859523718,1.12335205078125E-06,0.63836669921875,3,1246,3.68125576758757E-06,-2.15024434030056E-06
0.635223388671875,18.8744039523467,1.116943359375E-06,0.6363525390625,3,1247,3.68125576758757E-06,-2.15024434030056E-06
0.63323974609375,18.8843219523217,1.10992431640625E-06,0.6343994140625,3,1248,3.68125576758757E-06,-2.15024434030056E-06
0.631256103515625,18.8942399522966,1.10321044921875E-06,0.632415771484375,3,1249,3.68125576758757E-06,-2.15024434030056E-06
0.6292724609375,18.9041579522716,1.09710693359375E-06,0.630462646484375,3,1250,3.68125576758757E-06,-2.15024434030056E-06
0.627288818359375,18.9140759522465,1.0894775390625E-06,0.62841796875,3,1251,3.68125576758757E-06,-2.15024434030056E-06
0.62530517578125,18.9239939522215,1.08489990234375E-06,0.626312255859375,3,1252,3.68125576758757E-06,-2.15024434030056E-06
0.623321533203125,18.9339119521965,1.077880859375E-06,0.624481201171875,3,1253,3.68125576758757E-06,-2.15024434030056E-06
0.621337890625,18.9438299521714,1.0711669921875E-06,0.622528076171875,3,1254,3.68125576758757E-06,-2.15024434030056E-06
0.619354248046875,18.9537479521464,1.06536865234375E-06,0.62054443359375,3,1255,3.68125576758757E-06,-2.15024434030056E-06
0.61737060546875,18.9636659521213,1.05926513671875E-06,0.6185302734375,3,1256,3.68125576758757E-06,-2.15024434030056E-06
0.615386962890625,18.9735839520963,1.05316162109375E-06,0.616485595703125,3,1257,3.68125576758757E-06,-2.15024434030056E-06
0.6134033203125,18.9835019520713,1.04736328125E-06,0.61456298828125,3,1258,3.68125576758757E-06,-2.15024434030056E-06
0.611419677734375,18.9934199520462,1.041259765625E-06,0.612579345703125,3,1259,3.68125576758757E-06,-2.15024434030056E-06
0.60943603515625,19.0033379520212,1.03485107421875E-06,0.61053466796875,3,1260,3.68125576758757E-06,-2.15024434030056E-06
0.607452392578125,19.0132559519961,1.02935791015625E-06,0.60858154296875,3,1261,3.68125576758757E-06,-2.15024434030056E-06
0.60546875,19.0231739519711,1.02264404296875E-06,0.606658935546875,3,1262,3.68125576758757E-06,-2.15024434030056E-06
0.603485107421875,19.0330919519461,1.01715087890625E-06,0.604705810546875,3,1263,3.68125576758757E-06,-2.15024434030056E-06
0.60150146484375,19.043009951921,1.01104736328125E-06,0.602691650390625,3,1264,3.68125576758757E-06,-2.15024434030056E-06
0.599517822265625,19.052927951896,1.00494384765625E-06,0.600616455078125,3,1265,3.68125576758757E-06,-2.15024434030056E-06
0.5975341796875,19.0628459518709,9.979248046875E-07,0.5987548828125,3,1266,3.68125576758757E-06,-2.15024434030056E-06
0.595550537109375,19.0727639518459,9.92431640625E-07,0.59674072265625,3,1267,3.68125576758757E-06,-2.15024434030056E-06
0.59356689453125,19.0826819518209,9.8724365234375E-07,0.594696044921875,3,1268,3.68125576758757E-06,-2.15024434030056E-06
0.591583251953125,19.0925999517958,9.808349609375E-07,0.592742919921875,3,1269,3.68125576758757E-06,-2.15024434030056E-06
0.589599609375,19.1025179517708,9.7412109375E-07,0.590850830078125,3,1270,3.68125576758757E-06,-2.15024434030056E-06
0.587615966796875,19.1124359517457,9.6832275390625E-07,0.588836669921875,3,1271,3.68125576758757E-06,-2.15024434030056E-06
0.58563232421875,19.1223539517207,9.6221923828125E-07,0.586639404296875,3,1272,3.68125576758757E-06,-2.15024434030056E-06
0.583648681640625,19.1322719516957,9.5611572265625E-07,0.58477783203125,3,1273,3.68125576758757E-06,-2.15024434030056E-06
0.5816650390625,19.1421899516706,9.4940185546875E-07,0.582855224609375,3,1274,3.68125576758757E-06,-2.15024434030056E-06
0.579681396484375,19.1521079516456,9.43603515625E-07,0.58087158203125,3,1275,3.68125576758757E-06,-2.15024434030056E-06
0.57769775390625,19.1620259516205,9.3597412109375E-07,0.578887939453125,3,1276,3.68125576758757E-06,-2.15024434030056E-06
0.575714111328125,19.1719439515955,9.307861328125E-07,0.576904296875,3,1277,3.68125576758757E-06,-2.15024434030056E-06
0.57373046875,19.1818619515705,9.2315673828125E-07,0.574798583984375,3,1278,3.68125576758757E-06,-2.15024434030056E-06
0.571746826171875,19.1917799515454,9.1705322265625E-07,0.57293701171875,3,1279,3.68125576758757E-06,-2.15024434030056E-06
0.56976318359375,19.2016979515204,9.1064453125E-07,0.570953369140625,3,1280,3.68125576758757E-06,-2.15024434030056E-06
0.567779541015625,19.2116159514953,9.0240478515625E-07,0.56903076171875,3,1281,3.68125576758757E-06,-2.15024434030056E-06
0.5657958984375,19.2215339514703,8.9630126953125E-07,0.566986083984375,3,1282,3.68125576758757E-06,-2.15024434030056E-06
0.563812255859375,19.2314519514453,8.88671875E-07,0.56500244140625,3,1283,3.68125576758757E-06,-2.15024434030056E-06
0.56182861328125,19.2413699514202,8.8165283203125E-07,0.563018798828125,3,1284,3.68125576758757E-06,-2.15024434030056E-06
0.559844970703125,19.2512879513952,8.740234375E-07,0.560943603515625,3,1285,3.68125576758757E-06,-2.15024434030056E-06
0.557861328125,19.2612059513701,8.6639404296875E-07,0.55908203125,3,1286,3.68125576758757E-06,-2.15024434030056E-06
0.555877685546875,19.2711239513451,8.575439453125E-07,0.557159423828125,3,1287,3.68125576758757E-06,-2.15024434030056E-06
0.55389404296875,19.28104195132,8.4930419921875E-07,0.555084228515625,3,1288,3.68125576758757E-06,-2.15024434030056E-06
0.551910400390625,19.290959951295,8.41064453125E-07,0.553131103515625,3,1289,3.68125576758757E-06,-2.15024434030056E-06
0.5499267578125,19.30087795127,8.319091796875E-07,0.551116943359375,3,1290,3.68125576758757E-06,-2.15024434030056E-06
0.547943115234375,19.3107959512449,8.2305908203125E-07,0.5491943359375,3,1291,3.68125576758757E-06,-2.15024434030056E-06
0.54595947265625,19.3207139512199,8.135986328125E-07,0.54718017578125,3,1292,3.68125576758757E-06,-2.15024434030056E-06
0.543975830078125,19.3306319511948,8.0413818359375E-07,0.5452880859375,3,1293,3.68125576758757E-06,-2.15024434030056E-06
0.5419921875,19.3405499511698,7.9376220703125E-07,0.543243408203125,3,1294,3.68125576758757E-06,-2.15024434030056E-06
0.540008544921875,19.3504679511448,7.8338623046875E-07,0.541168212890625,3,1295,3.68125576758757E-06,-2.15024434030056E-06
0.53802490234375,19.3603859511197,7.733154296875E-07,0.5391845703125,3,1296,3.68125576758757E-06,-2.15024434030056E-06
0.536041259765625,19.3703039510947,7.623291015625E-07,0.537261962890625,3,1297,3.68125576758757E-06,-2.15024434030056E-06
0.5340576171875,19.3802219510696,7.501220703125E-07,0.53521728515625,3,1298,3.68125576758757E-06,-2.15024434030056E-06
0.532073974609375,19.3901399510446,7.38525390625E-07,0.533294677734375,3,1299,3.68125576758757E-06,-2.15024434030056E-06
0.53009033203125,19.4000579510196,7.2540283203125E-07,0.5313720703125,3,1300,3.68125576758757E-06,-2.15024434030056E-06
0.528106689453125,19.4099759509945,7.1258544921875E-07,0.529296875,3,1301,3.68125576758757E-06,-2.15024434030056E-06
0.526123046875,19.4198939509695,6.9854736328125E-07,0.52728271484375,3,1302,3.68125576758757E-06,-2.15024434030056E-06
0.524139404296875,19.4298119509444,6.842041015625E-07,0.52532958984375,3,1303,3.68125576758757E-06,-2.15024434030056E-06
0.52215576171875,19.4397299509194,6.683349609375E-07,0.52337646484375,3,1304,3.68125576758757E-06,-2.15024434030056E-06
0.520172119140625,19.4496479508944,6.53076171875E-07,0.521484375,3,1305,3.68125576758757E-06,-2.15024434030056E-06
0.5181884765625,19.4595659508693,6.365966796875E-07,0.51947021484375,3,1306,3.68125576758757E-06,-2.15024434030056E-06
0.516204833984375,19.4694839508443,6.18896484375E-07,0.517486572265625,3,1307,3.68125576758757E-06,-2.15024434030056E-06
0.51422119140625,19.4794019508192,6.005859375E-07,0.515380859375,3,1308,3.68125576758757E-06,-2.15024434030056E-06
0.512237548828125,19.4893199507942,5.8258056640625E-07,0.513336181640625,3,1309,3.68125576758757E-06,-2.15024434030056E-06
0.51025390625,19.4992379507692,5.621337890625E-07,0.511505126953125,3,1310,3.68125576758757E-06,-2.15024434030056E-06
0.508270263671875,19.5091559507441,5.413818359375E-07,0.509521484375,3,1311,3.68125576758757E-06,-2.15024434030056E-06
0.50628662109375,19.5190739507191,5.18798828125E-07,0.507598876953125,3,1312,3.68125576758757E-06,-2.15024434030056E-06
0.504302978515625,19.528991950694,4.9713134765625E-07,0.505615234375,3,1313,3.68125576758757E-06,-2.15024434030056E-06
0.5023193359375,19.538909950669,4.7271728515625E-07,0.50347900390625,3,1314,3.68125576758757E-06,-2.15024434030056E-06
0.500335693359375,19.548827950644,4.47845458984375E-07,0.501617431640625,3,1315,3.68125576758757E-06,-2.15024434030056E-06
0.49835205078125,19.5587459506189,4.20867919921875E-07,0.49957275390625,3,1316,3.68125576758757E-06,-2.15024434030056E-06
0.496368408203125,19.5686639505939,3.93280029296875E-07,0.49755859375,3,1317,3.68125576758757E-06,-2.15024434030056E-06
0.494384765625,19.5785819505688,3.63128662109375E-07,0.495697021484375,3,1318,3.68125576758757E-06,-2.15024434030056E-06
0.492401123046875,19.5884999505438,3.32733154296875E-07,0.49371337890625,3,1319,3.68125576758757E-06,-2.15024434030056E-06
0.49041748046875,19.5984179505188,3.016357421875E-07,0.49169921875,3,1320,3.68125576758757E-06,-2.15024434030056E-06
0.488433837890625,19.6083359504937,2.67822265625E-07,0.489532470703125,3,1321,3.68125576758757E-06,-2.15024434030056E-06
0.4864501953125,19.6182539504687,2.34893798828125E-07,0.487701416015625,3,1322,3.68125576758757E-06,-2.15024434030056E-06
0.484466552734375,19.6281719504436,1.9775390625E-07,0.485748291015625,3,1323,3.68125576758757E-06,-2.15024434030056E-06
0.48248291015625,19.6380899504186,1.61895751953125E-07,0.48370361328125,3,1324,3.68125576758757E-06,-2.15024434030056E-06
0.480499267578125,19.6480079503935,1.2255859375E-07,0.4818115234375,3,1325,3.68125576758757E-06,-2.15024434030056E-06
0.478515625,19.6579259503685,8.2672119140625E-08,0.47967529296875,3,1326,3.68125576758757E-06,-2.15024434030056E-06
0.476531982421875,19.6678439503435,4.0582275390625E-08,0.477813720703125,3,1327,3.68125576758757E-06,-2.15024434030056E-06
0.47454833984375,19.6777619503184,-2.7374267578125E-09,0.475830078125,3,1328,3.68125576758757E-06,-2.15024434030056E-06
0.472564697265625,19.6876799502934,-4.7332763671875E-08,0.473876953125,3,1329,3.68125576758757E-06,-2.15024434030056E-06
0.4705810546875,19.6975979502683,-9.3536376953125E-08,0.471923828125,3,1330,3.68125576758757E-06,-2.15024434030056E-06
0.468597412109375,19.7075159502433,-1.4227294921875E-07,0.4698486328125,3,1331,3.68125576758757E-06,-2.15024434030056E-06
0.46661376953125,19.7174339502183,-1.91314697265625E-07,0.467742919921875,3,1332,3.68125576758757E-06,-2.15024434030056E-06
0.464630126953125,19.7273519501932,-2.40936279296875E-07,0.4658203125,3,1333,3.68125576758757E-06,-2.15024434030056E-06
0.462646484375,19.7372699501682,-2.9205322265625E-07,0.4639892578125,3,1334,3.68125576758757E-06,-2.15024434030056E-06
0.460662841796875,19.7471879501431,-3.4613037109375E-07,0.461883544921875,3,1335,3.68125576758757E-06,-2.15024434030056E-06
0.45867919921875,19.7571059501181,-4.00299072265625E-07,0.4599609375,3,1336,3.68125576758757E-06,-2.15024434030056E-06
0.456695556640625,19.7670239500931,-4.56451416015625E-07,0.4578857421875,3,1337,3.68125576758757E-06,-2.15024434030056E-06
0.4547119140625,19.776941950068,-5.125732421875E-07,0.4559326171875,3,1338,3.68125576758757E-06,-2.15024434030056E-06
0.452728271484375,19.786859950043,-5.6878662109375E-07,0.453887939453125,3,1339,3.68125576758757E-06,-2.15024434030056E-06
0.45074462890625,19.7967779500179,-6.2799072265625E-07,0.45208740234375,3,1340,3.68125576758757E-06,-2.15024434030056E-06
0.448760986328125,19.8066959499929,-6.8359375E-07,0.4500732421875,3,1341,3.68125576758757E-06,-2.15024434030056E-06
0.44677734375,19.8166139499679,-7.43408203125E-07,0.448028564453125,3,1342,3.68125576758757E-06,-2.15024434030056E-06
0.444793701171875,19.8265319499428,-8.0169677734375E-07,0.44598388671875,3,1343,3.68125576758757E-06,-2.15024434030056E-06
0.44281005859375,19.8364499499178,-8.612060546875E-07,0.444061279296875,3,1344,3.68125576758757E-06,-2.15024434030056E-06
0.440826416015625,19.8463679498927,-9.2132568359375E-07,0.442108154296875,3,1345,3.68125576758757E-06,-2.15024434030056E-06
0.4388427734375,19.8562859498677,-9.7900390625E-07,0.440155029296875,3,1346,3.68125576758757E-06,-2.15024434030056E-06
0.436859130859375,19.8662039498427,-1.0382080078125E-06,0.438079833984375,3,1347,3.68125576758757E-06,-2.15024434030056E-06
0.43487548828125,19.8761219498176,-1.09619140625E-06,0.436187744140625,3,1348,3.68125576758757E-06,-2.15024434030056E-06
0.432891845703125,19.8860399497926,-1.15234375E-06,0.434234619140625,3,1349,3.68125576758757E-06,-2.15024434030056E-06
0.430908203125,19.8959579497675,-1.20849609375E-06,0.432159423828125,3,1350,3.68125576758757E-06,-2.15024434030056E-06
0.428924560546875,19.9058759497425,-1.2640380859375E-06,0.43011474609375,3,1351,3.68125576758757E-06,-2.15024434030056E-06
0.42694091796875,19.9157939497175,-1.31622314453125E-06,0.428192138671875,3,1352,3.68125576758757E-06,-2.15024434030056E-06
0.424957275390625,19.9257119496924,-1.3677978515625E-06,0.42620849609375,3,1353,3.68125576758757E-06,-2.15024434030056E-06
0.4229736328125,19.9356299496674,-1.41815185546875E-06,0.42425537109375,3,1354,3.68125576758757E-06,-2.15024434030056E-06
0.420989990234375,19.9455479496423,-1.466064453125E-06,0.42230224609375,3,1355,3.68125576758757E-06,-2.15024434030056E-06
0.41900634765625,19.9554659496173,-1.51397705078125E-06,0.4202880859375,3,1356,3.68125576758757E-06,-2.15024434030056E-06
0.417022705078125,19.9653839495923,-1.5570068359375E-06,0.418243408203125,3,1357,3.68125576758757E-06,-2.15024434030056E-06
0.4150390625,19.9753019495672,-1.5985107421875E-06,0.416229248046875,3,1358,3.68125576758757E-06,-2.15024434030056E-06
0.413055419921875,19.9852199495422,-1.63726806640625E-06,0.414337158203125,3,1359,3.68125576758757E-06,-2.15024434030056E-06
0.41107177734375,19.9951379495171,-1.6741943359375E-06,0.412445068359375,3,1360,3.68125576758757E-06,-2.15024434030056E-06
0.409088134765625,20.0050559494921,-1.708984375E-06,0.410400390625,3,1361,3.68125576758757E-06,-2.15024434030056E-06
0.4071044921875,20.014973949467,-1.7388916015625E-06,0.408294677734375,3,1362,3.68125576758757E-06,-2.15024434030056E-06
0.405120849609375,20.024891949442,-1.768798828125E-06,0.406463623046875,3,1363,3.68125576758757E-06,-2.15024434030056E-06
0.40313720703125,20.034809949417,-1.79473876953125E-06,0.404327392578125,3,1364,3.68125576758757E-06,-2.15024434030056E-06
0.401153564453125,20.0447279493919,-1.81854248046875E-06,0.40240478515625,3,1365,3.68125576758757E-06,-2.15024434030056E-06
0.399169921875,20.0546459493669,-1.839599609375E-06,0.4005126953125,3,1366,3.68125576758757E-06,-2.15024434030056E-06
0.397186279296875,20.0645639493418,-1.85699462890625E-06,0.398590087890625,3,1367,3.68125576758757E-06,-2.15024434030056E-06
0.39520263671875,20.0744819493168,-1.873779296875E-06,0.396575927734375,3,1368,3.68125576758757E-06,-2.15024434030056E-06
0.393218994140625,20.0843999492918,-1.8853759765625E-06,0.39447021484375,3,1369,3.68125576758757E-06,-2.15024434030056E-06
0.3912353515625,20.0943179492667,-1.89605712890625E-06,0.39251708984375,3,1370,3.68125576758757E-06,-2.15024434030056E-06
0.389251708984375,20.1042359492417,-1.90277099609375E-06,0.390472412109375,3,1371,3.68125576758757E-06,-2.15024434030056E-06
0.38726806640625,20.1141539492166,-1.90948486328125E-06,0.38861083984375,3,1372,3.68125576758757E-06,-2.15024434030056E-06
0.385284423828125,20.1240719491916,-1.912841796875E-06,0.38665771484375,3,1373,3.68125576758757E-06,-2.15024434030056E-06
0.38330078125,20.1339899491666,-1.9140625E-06,0.384735107421875,3,1374,3.68125576758757E-06,-2.15024434030056E-06
0.381317138671875,20.1439079491415,-1.9140625E-06,0.382568359375,3,1375,3.68125576758757E-06,-2.15024434030056E-06
0.37933349609375,20.1538259491165,-1.91192626953125E-06,0.380615234375,3,1376,3.68125576758757E-06,-2.15024434030056E-06
0.377349853515625,20.1637439490914,-1.90673828125E-06,0.378631591796875,3,1377,3.68125576758757E-06,-2.15024434030056E-06
0.3753662109375,20.1736619490664,-1.900634765625E-06,0.3765869140625,3,1378,3.68125576758757E-06,-2.15024434030056E-06
0.373382568359375,20.1835799490414,-1.8939208984375E-06,0.374755859375,3,1379,3.68125576758757E-06,-2.15024434030056E-06
0.37139892578125,20.1934979490163,-1.88568115234375E-06,0.372772216796875,3,1380,3.68125576758757E-06,-2.15024434030056E-06
0.369415283203125,20.2034159489913,-1.87530517578125E-06,0.37066650390625,3,1381,3.68125576758757E-06,-2.15024434030056E-06
0.367431640625,20.2133339489662,-1.86370849609375E-06,0.368682861328125,3,1382,3.68125576758757E-06,-2.15024434030056E-06
0.365447998046875,20.2232519489412,-1.8505859375E-06,0.366790771484375,3,1383,3.68125576758757E-06,-2.15024434030056E-06
0.36346435546875,20.2331699489162,-1.83929443359375E-06,0.364776611328125,3,1384,3.68125576758757E-06,-2.15024434030056E-06
0.361480712890625,20.2430879488911,-1.82403564453125E-06,0.36279296875,3,1385,3.68125576758757E-06,-2.15024434030056E-06
0.3594970703125,20.2530059488661,-1.8096923828125E-06,0.36077880859375,3,1386,3.68125576758757E-06,-2.15024434030056E-06
0.357513427734375,20.262923948841,-1.7938232421875E-06,0.358917236328125,3,1387,3.68125576758757E-06,-2.15024434030056E-06
0.35552978515625,20.272841948816,-1.77734375E-06,0.35687255859375,3,1388,3.68125576758757E-06,-2.15024434030056E-06
0.353546142578125,20.282759948791,-1.7608642578125E-06,0.35498046875,3,1389,3.68125576758757E-06,-2.15024434030056E-06
0.3515625,20.2926779487659,-1.7437744140625E-06,0.35284423828125,3,1390,3.68125576758757E-06,-2.15024434030056E-06
0.349578857421875,20.3025959487409,-1.7266845703125E-06,0.350921630859375,3,1391,3.68125576758757E-06,-2.15024434030056E-06
0.34759521484375,20.3125139487158,-1.70867919921875E-06,0.348907470703125,3,1392,3.68125576758757E-06,-2.15024434030056E-06
0.345611572265625,20.3224319486908,-1.69036865234375E-06,0.347015380859375,3,1393,3.68125576758757E-06,-2.15024434030056E-06
0.3436279296875,20.3323499486658,-1.6729736328125E-06,0.34490966796875,3,1394,3.68125576758757E-06,-2.15024434030056E-06
0.341644287109375,20.3422679486407,-1.6546630859375E-06,0.342926025390625,3,1395,3.68125576758757E-06,-2.15024434030056E-06
0.33966064453125,20.3521859486157,-1.63726806640625E-06,0.341033935546875,3,1396,3.68125576758757E-06,-2.15024434030056E-06
0.337677001953125,20.3621039485906,-1.617431640625E-06,0.33905029296875,3,1397,3.68125576758757E-06,-2.15024434030056E-06
0.335693359375,20.3720219485656,-1.600341796875E-06,0.337005615234375,3,1398,3.68125576758757E-06,-2.15024434030056E-06
0.333709716796875,20.3819399485405,-1.58172607421875E-06,0.33502197265625,3,1399,3.68125576758757E-06,-2.15024434030056E-06
0.33172607421875,20.3918579485155,-1.5643310546875E-06,0.3331298828125,3,1400,3.68125576758757E-06,-2.15024434030056E-06
0.329742431640625,20.4017759484905,-1.54571533203125E-06,0.331024169921875,3,1401,3.68125576758757E-06,-2.15024434030056E-06
0.3277587890625,20.4116939484654,-1.52862548828125E-06,0.329071044921875,3,1402,3.68125576758757E-06,-2.15024434030056E-06
0.325775146484375,20.4216119484404,-1.510009765625E-06,0.3271484375,3,1403,3.68125576758757E-06,-2.15024434030056E-06
0.32379150390625,20.4315299484153,-1.49322509765625E-06,0.32513427734375,3,1404,3.68125576758757E-06,-2.15024434030056E-06
0.321807861328125,20.4414479483903,-1.47552490234375E-06,0.323150634765625,3,1405,3.68125576758757E-06,-2.15024434030056E-06
0.31982421875,20.4513659483653,-1.45904541015625E-06,0.321014404296875,3,1406,3.68125576758757E-06,-2.15024434030056E-06
0.317840576171875,20.4612839483402,-1.44134521484375E-06,0.319183349609375,3,1407,3.68125576758757E-06,-2.15024434030056E-06
0.31585693359375,20.4712019483152,-1.4251708984375E-06,0.317230224609375,3,1408,3.68125576758757E-06,-2.15024434030056E-06
0.313873291015625,20.4811199482901,-1.40838623046875E-06,0.315216064453125,3,1409,3.68125576758757E-06,-2.15024434030056E-06
0.3118896484375,20.4910379482651,-1.39190673828125E-06,0.31329345703125,3,1410,3.68125576758757E-06,-2.15024434030056E-06
0.309906005859375,20.5009559482401,-1.3763427734375E-06,0.311279296875,3,1411,3.68125576758757E-06,-2.15024434030056E-06
0.30792236328125,20.510873948215,-1.36016845703125E-06,0.309173583984375,3,1412,3.68125576758757E-06,-2.15024434030056E-06
0.305938720703125,20.52079194819,-1.3458251953125E-06,0.30731201171875,3,1413,3.68125576758757E-06,-2.15024434030056E-06
0.303955078125,20.5307099481649,-1.33026123046875E-06,0.3052978515625,3,1414,3.68125576758757E-06,-2.15024434030056E-06
0.301971435546875,20.5406279481399,-1.31591796875E-06,0.30340576171875,3,1415,3.68125576758757E-06,-2.15024434030056E-06
0.29998779296875,20.5505459481149,-1.30126953125E-06,0.301422119140625,3,1416,3.68125576758757E-06,-2.15024434030056E-06
0.298004150390625,20.5604639480898,-1.2872314453125E-06,0.299346923828125,3,1417,3.68125576758757E-06,-2.15024434030056E-06
0.2960205078125,20.5703819480648,-1.2725830078125E-06,0.297393798828125,3,1418,3.68125576758757E-06,-2.15024434030056E-06
0.294036865234375,20.5802999480397,-1.25885009765625E-06,0.29541015625,3,1419,3.68125576758757E-06,-2.15024434030056E-06
0.29205322265625,20.5902179480147,-1.2457275390625E-06,0.29339599609375,3,1420,3.68125576758757E-06,-2.15024434030056E-06
0.290069580078125,20.6001359479897,-1.23199462890625E-06,0.291412353515625,3,1421,3.68125576758757E-06,-2.15024434030056E-06
0.2880859375,20.6100539479646,-1.21978759765625E-06,0.2894287109375,3,1422,3.68125576758757E-06,-2.15024434030056E-06
0.286102294921875,20.6199719479396,-1.2066650390625E-06,0.287506103515625,3,1423,3.68125576758757E-06,-2.15024434030056E-06
0.28411865234375,20.6298899479145,-1.1944580078125E-06,0.285400390625,3,1424,3.68125576758757E-06,-2.15024434030056E-06
0.282135009765625,20.6398079478895,-1.181640625E-06,0.283538818359375,3,1425,3.68125576758757E-06,-2.15024434030056E-06
0.2801513671875,20.6497259478645,-1.16973876953125E-06,0.281494140625,3,1426,3.68125576758757E-06,-2.15024434030056E-06
0.278167724609375,20.6596439478394,-1.1578369140625E-06,0.279571533203125,3,1427,3.68125576758757E-06,-2.15024434030056E-06
0.27618408203125,20.6695619478144,-1.146240234375E-06,0.277435302734375,3,1428,3.68125576758757E-06,-2.15024434030056E-06
0.274200439453125,20.6794799477893,-1.1358642578125E-06,0.275543212890625,3,1429,3.68125576758757E-06,-2.15024434030056E-06
0.272216796875,20.6893979477643,-1.12396240234375E-06,0.2734375,3,1430,3.68125576758757E-06,-2.15024434030056E-06
0.270233154296875,20.6993159477393,-1.114501953125E-06,0.271636962890625,3,1431,3.68125576758757E-06,-2.15024434030056E-06
0.26824951171875,20.7092339477142,-1.10321044921875E-06,0.2696533203125,3,1432,3.68125576758757E-06,-2.15024434030056E-06
0.266265869140625,20.7191519476892,-1.0931396484375E-06,0.26763916015625,3,1433,3.68125576758757E-06,-2.15024434030056E-06
0.2642822265625,20.7290699476641,-1.082763671875E-06,0.265594482421875,3,1434,3.68125576758757E-06,-2.15024434030056E-06
0.262298583984375,20.7389879476391,-1.07330322265625E-06,0.263824462890625,3,1435,3.68125576758757E-06,-2.15024434030056E-06
0.26031494140625,20.748905947614,-1.06353759765625E-06,0.26165771484375,3,1436,3.68125576758757E-06,-2.15024434030056E-06
0.258331298828125,20.758823947589,-1.0540771484375E-06,0.259735107421875,3,1437,3.68125576758757E-06,-2.15024434030056E-06
0.25634765625,20.768741947564,-1.04400634765625E-06,0.25762939453125,3,1438,3.68125576758757E-06,-2.15024434030056E-06
0.254364013671875,20.7786599475389,-1.03546142578125E-06,0.25579833984375,3,1439,3.68125576758757E-06,-2.15024434030056E-06
0.25238037109375,20.7885779475139,-1.02630615234375E-06,0.2537841796875,3,1440,3.68125576758757E-06,-2.15024434030056E-06
0.250396728515625,20.7984959474888,-1.01715087890625E-06,0.25177001953125,3,1441,3.68125576758757E-06,-2.15024434030056E-06
0.2484130859375,20.8084139474638,-1.00799560546875E-06,0.24981689453125,3,1442,3.68125576758757E-06,-2.15024434030056E-06
0.246429443359375,20.8183319474388,-1.00006103515625E-06,0.247894287109375,3,1443,3.68125576758757E-06,-2.15024434030056E-06
0.24444580078125,20.8282499474137,-9.918212890625E-07,0.245849609375,3,1444,3.68125576758757E-06,-2.15024434030056E-06
0.242462158203125,20.8381679473887,-9.8358154296875E-07,0.243804931640625,3,1445,3.68125576758757E-06,-2.15024434030056E-06
0.240478515625,20.8480859473636,-9.75341796875E-07,0.2418212890625,3,1446,3.68125576758757E-06,-2.15024434030056E-06
0.238494873046875,20.8580039473386,-9.6771240234375E-07,0.239959716796875,3,1447,3.68125576758757E-06,-2.15024434030056E-06
0.23651123046875,20.8679219473136,-9.6038818359375E-07,0.237823486328125,3,1448,3.68125576758757E-06,-2.15024434030056E-06
0.234527587890625,20.8778399472885,-9.527587890625E-07,0.235870361328125,3,1449,3.68125576758757E-06,-2.15024434030056E-06
0.2325439453125,20.8877579472635,-9.4512939453125E-07,0.23394775390625,3,1450,3.68125576758757E-06,-2.15024434030056E-06
0.230560302734375,20.8976759472384,-9.375E-07,0.231964111328125,3,1451,3.68125576758757E-06,-2.15024434030056E-06
0.22857666015625,20.9075939472134,-9.3048095703125E-07,0.22991943359375,3,1452,3.68125576758757E-06,-2.15024434030056E-06
0.226593017578125,20.9175119471884,-9.24072265625E-07,0.22802734375,3,1453,3.68125576758757E-06,-2.15024434030056E-06
0.224609375,20.9274299471633,-9.173583984375E-07,0.225982666015625,3,1454,3.68125576758757E-06,-2.15024434030056E-06
0.222625732421875,20.9373479471383,-9.100341796875E-07,0.224029541015625,3,1455,3.68125576758757E-06,-2.15024434030056E-06
0.22064208984375,20.9472659471132,-9.0423583984375E-07,0.2220458984375,3,1456,3.68125576758757E-06,-2.15024434030056E-06
0.218658447265625,20.9571839470882,-8.9752197265625E-07,0.22003173828125,3,1457,3.68125576758757E-06,-2.15024434030056E-06
0.2166748046875,20.9671019470632,-8.9111328125E-07,0.21807861328125,3,1458,3.68125576758757E-06,-2.15024434030056E-06
0.214691162109375,20.9770199470381,-8.85009765625E-07,0.216033935546875,3,1459,3.68125576758757E-06,-2.15024434030056E-06
0.21270751953125,20.9869379470131,-8.7921142578125E-07,0.214080810546875,3,1460,3.68125576758757E-06,-2.15024434030056E-06
0.210723876953125,20.996855946988,-8.734130859375E-07,0.212127685546875,3,1461,3.68125576758757E-06,-2.15024434030056E-06
0.208740234375,21.006773946963,-8.673095703125E-07,0.210113525390625,3,1462,3.68125576758757E-06,-2.15024434030056E-06
0.206756591796875,21.016691946938,-8.6151123046875E-07,0.208160400390625,3,1463,3.68125576758757E-06,-2.15024434030056E-06
0.20477294921875,21.0266099469129,-8.5540771484375E-07,0.20623779296875,3,1464,3.68125576758757E-06,-2.15024434030056E-06
0.202789306640625,21.0365279468879,-8.502197265625E-07,0.2042236328125,3,1465,3.68125576758757E-06,-2.15024434030056E-06
0.2008056640625,21.0464459468628,-8.447265625E-07,0.20208740234375,3,1466,3.68125576758757E-06,-2.15024434030056E-06
0.198822021484375,21.0563639468378,-8.392333984375E-07,0.2001953125,3,1467,3.68125576758757E-06,-2.15024434030056E-06
0.2008056640625,21.0662819468128,-8.2489013671875E-07,0.20220947265625,3,1468,3.68125576758757E-06,-2.15024434030056E-06
0.202789306640625,21.0761999467877,-8.1329345703125E-07,0.204071044921875,3,1469,3.68125576758757E-06,-2.15024434030056E-06
0.20477294921875,21.0861179467627,-8.0169677734375E-07,0.206207275390625,3,1470,3.68125576758757E-06,-2.15024434030056E-06
0.206756591796875,21.0960359467376,-7.9132080078125E-07,0.2081298828125,3,1471,3.68125576758757E-06,-2.15024434030056E-06
0.208740234375,21.1059539467126,-7.8155517578125E-07,0.210296630859375,3,1472,3.68125576758757E-06,-2.15024434030056E-06
0.210723876953125,21.1158719466875,-7.733154296875E-07,0.212188720703125,3,1473,3.68125576758757E-06,-2.15024434030056E-06
0.21270751953125,21.1257899466625,-7.635498046875E-07,0.21392822265625,3,1474,3.68125576758757E-06,-2.15024434030056E-06
0.214691162109375,21.1357079466375,-7.550048828125E-07,0.216064453125,3,1475,3.68125576758757E-06,-2.15024434030056E-06
0.2166748046875,21.1456259466124,-7.4615478515625E-07,0.218109130859375,3,1476,3.68125576758757E-06,-2.15024434030056E-06
0.218658447265625,21.1555439465874,-7.3883056640625E-07,0.220062255859375,3,1477,3.68125576758757E-06,-2.15024434030056E-06
0.22064208984375,21.1654619465623,-7.31201171875E-07,0.2220458984375,3,1478,3.68125576758757E-06,-2.15024434030056E-06
0.222625732421875,21.1753799465373,-7.232666015625E-07,0.22406005859375,3,1479,3.68125576758757E-06,-2.15024434030056E-06
0.224609375,21.1852979465123,-7.159423828125E-07,0.22601318359375,3,1480,3.68125576758757E-06,-2.15024434030056E-06
0.226593017578125,21.1952159464872,-7.080078125E-07,0.22808837890625,3,1481,3.68125576758757E-06,-2.15024434030056E-06
0.22857666015625,21.2051339464622,-7.012939453125E-07,0.23004150390625,3,1482,3.68125576758757E-06,-2.15024434030056E-06
0.230560302734375,21.2150519464371,-6.9366455078125E-07,0.2320556640625,3,1483,3.68125576758757E-06,-2.15024434030056E-06
0.2325439453125,21.2249699464121,-6.8695068359375E-07,0.233917236328125,3,1484,3.68125576758757E-06,-2.15024434030056E-06
0.234527587890625,21.2348879463871,-6.7962646484375E-07,0.2359619140625,3,1485,3.68125576758757E-06,-2.15024434030056E-06
0.23651123046875,21.244805946362,-6.7291259765625E-07,0.237884521484375,3,1486,3.68125576758757E-06,-2.15024434030056E-06
0.238494873046875,21.254723946337,-6.6650390625E-07,0.239898681640625,3,1487,3.68125576758757E-06,-2.15024434030056E-06
0.240478515625,21.2646419463119,-6.591796875E-07,0.241851806640625,3,1488,3.68125576758757E-06,-2.15024434030056E-06
0.242462158203125,21.2745599462869,-6.536865234375E-07,0.243927001953125,3,1489,3.68125576758757E-06,-2.15024434030056E-06
0.24444580078125,21.2844779462619,-6.4666748046875E-07,0.245941162109375,3,1490,3.68125576758757E-06,-2.15024434030056E-06
0.246429443359375,21.2943959462368,-6.4056396484375E-07,0.247802734375,3,1491,3.68125576758757E-06,-2.15024434030056E-06
0.2484130859375,21.3043139462118,-6.341552734375E-07,0.24981689453125,3,1492,3.68125576758757E-06,-2.15024434030056E-06
0.250396728515625,21.3142319461867,-6.2774658203125E-07,0.25177001953125,3,1493,3.68125576758757E-06,-2.15024434030056E-06
0.25238037109375,21.3241499461617,-6.2286376953125E-07,0.25372314453125,3,1494,3.68125576758757E-06,-2.15024434030056E-06
0.254364013671875,21.3340679461367,-6.158447265625E-07,0.255706787109375,3,1495,3.68125576758757E-06,-2.15024434030056E-06
0.25634765625,21.3439859461116,-6.097412109375E-07,0.257781982421875,3,1496,3.68125576758757E-06,-2.15024434030056E-06
0.258331298828125,21.3539039460866,-6.0394287109375E-07,0.25970458984375,3,1497,3.68125576758757E-06,-2.15024434030056E-06
0.26031494140625,21.3638219460615,-5.9906005859375E-07,0.261749267578125,3,1498,3.68125576758757E-06,-2.15024434030056E-06
0.262298583984375,21.3737399460365,-5.92041015625E-07,0.263702392578125,3,1499,3.68125576758757E-06,-2.15024434030056E-06
0.2642822265625,21.3836579460115,-5.8624267578125E-07,0.265625,3,1500,3.68125576758757E-06,-2.15024434030056E-06
0.266265869140625,21.3935759459864,-5.8074951171875E-07,0.26763916015625,3,1501,3.68125576758757E-06,-2.15024434030056E-06
0.26824951171875,21.4034939459614,-5.7464599609375E-07,0.26971435546875,3,1502,3.68125576758757E-06,-2.15024434030056E-06
0.270233154296875,21.4134119459363,-5.6915283203125E-07,0.271636962890625,3,1503,3.68125576758757E-06,-2.15024434030056E-06
0.272216796875,21.4233299459113,-5.6304931640625E-07,0.273529052734375,3,1504,3.68125576758757E-06,-2.15024434030056E-06
0.274200439453125,21.4332479458863,-5.57861328125E-07,0.275482177734375,3,1505,3.68125576758757E-06,-2.15024434030056E-06
0.27618408203125,21.4431659458612,-5.511474609375E-07,0.277557373046875,3,1506,3.68125576758757E-06,-2.15024434030056E-06
0.278167724609375,21.4530839458362,-5.462646484375E-07,0.279632568359375,3,1507,3.68125576758757E-06,-2.15024434030056E-06
0.2801513671875,21.4630019458111,-5.3955078125E-07,0.281463623046875,3,1508,3.68125576758757E-06,-2.15024434030056E-06
0.282135009765625,21.4729199457861,-5.3314208984375E-07,0.283416748046875,3,1509,3.68125576758757E-06,-2.15024434030056E-06
0.28411865234375,21.482837945761,-5.2764892578125E-07,0.285400390625,3,1510,3.68125576758757E-06,-2.15024434030056E-06
0.286102294921875,21.492755945736,-5.21240234375E-07,0.28741455078125,3,1511,3.68125576758757E-06,-2.15024434030056E-06
0.2880859375,21.502673945711,-5.157470703125E-07,0.289306640625,3,1512,3.68125576758757E-06,-2.15024434030056E-06
0.290069580078125,21.5125919456859,-5.09033203125E-07,0.291412353515625,3,1513,3.68125576758757E-06,-2.15024434030056E-06
0.29205322265625,21.5225099456609,-5.0323486328125E-07,0.29345703125,3,1514,3.68125576758757E-06,-2.15024434030056E-06
0.294036865234375,21.5324279456358,-4.974365234375E-07,0.29547119140625,3,1515,3.68125576758757E-06,-2.15024434030056E-06
0.2960205078125,21.5423459456108,-4.9072265625E-07,0.297271728515625,3,1516,3.68125576758757E-06,-2.15024434030056E-06
0.298004150390625,21.5522639455858,-4.8431396484375E-07,0.29937744140625,3,1517,3.68125576758757E-06,-2.15024434030056E-06
0.29998779296875,21.5621819455607,-4.7760009765625E-07,0.301300048828125,3,1518,3.68125576758757E-06,-2.15024434030056E-06
