Potential applied (V)	Time (s)	WE(1).Current (A)	WE(1).Potential (V)	Scan	Index	Q+	Q-
0.998077392578125	42.680145892243	-1.009521484375E-07	0.99945068359375	3	1013	1.99030918627977E-05	-5.93539420515299E-08
0.99609375	42.6999818921929	-1.04217529296875E-07	0.99700927734375	3	1014	1.99030918627977E-05	-5.93539420515299E-08
0.994110107421875	42.7198178921428	-1.05438232421875E-07	0.99578857421875	3	1015	1.99030918627977E-05	-5.93539420515299E-08
0.99212646484375	42.7396538920927	-1.06201171875E-07	0.99334716796875	3	1016	1.99030918627977E-05	-5.93539420515299E-08
0.990142822265625	42.7594898920427	-1.05316162109375E-07	0.9906005859375	3	1017	1.99030918627977E-05	-5.93539420515299E-08
0.9881591796875	42.7793258919926	-1.033935546875E-07	0.9893798828125	3	1018	1.99030918627977E-05	-5.93539420515299E-08
0.986175537109375	42.7991618919425	-1.00494384765625E-07	0.98785400390625	3	1019	1.99030918627977E-05	-5.93539420515299E-08
0.98419189453125	42.8189978918924	-9.7564697265625E-08	0.9857177734375	3	1020	1.99030918627977E-05	-5.93539420515299E-08
0.982208251953125	42.8388338918423	-9.527587890625E-08	0.9832763671875	3	1021	1.99030918627977E-05	-5.93539420515299E-08
0.980224609375	42.8586698917923	-9.2864990234375E-08	0.98175048828125	3	1022	1.99030918627977E-05	-5.93539420515299E-08
0.978240966796875	42.8785058917422	-9.033203125E-08	0.97930908203125	3	1023	1.99030918627977E-05	-5.93539420515299E-08
0.97625732421875	42.8983418916921	-8.7799072265625E-08	0.9771728515625	3	1024	1.99030918627977E-05	-5.93539420515299E-08
0.974273681640625	42.918177891642	-8.3282470703125E-08	0.97564697265625	3	1025	1.99030918627977E-05	-5.93539420515299E-08
0.9722900390625	42.9380138915919	-7.72705078125E-08	0.9735107421875	3	1026	1.99030918627977E-05	-5.93539420515299E-08
0.970306396484375	42.9578498915419	-7.1258544921875E-08	0.97137451171875	3	1027	1.99030918627977E-05	-5.93539420515299E-08
0.96832275390625	42.9776858914918	-6.4178466796875E-08	0.96954345703125	3	1028	1.99030918627977E-05	-5.93539420515299E-08
0.966339111328125	42.9975218914417	-5.79833984375E-08	0.96710205078125	3	1029	1.99030918627977E-05	-5.93539420515299E-08
0.96435546875	43.0173578913916	-5.1666259765625E-08	0.9649658203125	3	1030	1.99030918627977E-05	-5.93539420515299E-08
0.962371826171875	43.0371938913415	-4.60205078125E-08	0.96405029296875	3	1031	1.99030918627977E-05	-5.93539420515299E-08
0.96038818359375	43.0570298912914	-4.013671875E-08	0.96160888671875	3	1032	1.99030918627977E-05	-5.93539420515299E-08
0.958404541015625	43.0768658912414	-3.424072265625E-08	0.95916748046875	3	1033	1.99030918627977E-05	-5.93539420515299E-08
0.9564208984375	43.0967018911913	-2.70751953125E-08	0.95703125	3	1034	1.99030918627977E-05	-5.93539420515299E-08
0.954437255859375	43.1165378911412	-1.942138671875E-08	0.95611572265625	3	1035	1.99030918627977E-05	-5.93539420515299E-08
0.95245361328125	43.1363738910911	-1.094970703125E-08	0.95367431640625	3	1036	1.99030918627977E-05	-5.93539420515299E-08
0.950469970703125	43.156209891041	-1.953125E-09	0.95123291015625	3	1037	1.99030918627977E-05	-5.93539420515299E-08
0.948486328125	43.176045890991	6.6680908203125E-09	0.94970703125	3	1038	1.99030918627977E-05	-5.93539420515299E-08
0.946502685546875	43.1958818909409	1.46270751953125E-08	0.9478759765625	3	1039	1.99030918627977E-05	-5.93539420515299E-08
0.94451904296875	43.2157178908908	2.2235107421875E-08	0.94512939453125	3	1040	1.99030918627977E-05	-5.93539420515299E-08
0.942535400390625	43.2355538908407	2.92572021484375E-08	0.94390869140625	3	1041	1.99030918627977E-05	-5.93539420515299E-08
0.9405517578125	43.2553898907906	3.70025634765625E-08	0.94146728515625	3	1042	1.99030918627977E-05	-5.93539420515299E-08
0.938568115234375	43.2752258907406	4.4403076171875E-08	0.9393310546875	3	1043	1.99030918627977E-05	-5.93539420515299E-08
0.93658447265625	43.2950618906905	5.2978515625E-08	0.93780517578125	3	1044	1.99030918627977E-05	-5.93539420515299E-08
0.934600830078125	43.3148978906404	6.1920166015625E-08	0.936279296875	3	1045	1.99030918627977E-05	-5.93539420515299E-08
0.9326171875	43.3347338905903	7.0709228515625E-08	0.93475341796875	3	1046	1.99030918627977E-05	-5.93539420515299E-08
0.930633544921875	43.3545698905402	7.965087890625E-08	0.9326171875	3	1047	1.99030918627977E-05	-5.93539420515299E-08
0.92864990234375	43.3744058904902	8.721923828125E-08	0.92926025390625	3	1048	1.99030918627977E-05	-5.93539420515299E-08
0.926666259765625	43.3942418904401	9.4818115234375E-08	0.92803955078125	3	1049	1.99030918627977E-05	-5.93539420515299E-08
0.9246826171875	43.41407789039	1.01470947265625E-07	0.9259033203125	3	1050	1.99030918627977E-05	-5.93539420515299E-08
0.922698974609375	43.4339138903399	1.07818603515625E-07	0.92376708984375	3	1051	1.99030918627977E-05	-5.93539420515299E-08
0.92071533203125	43.4537498902898	1.14776611328125E-07	0.92254638671875	3	1052	1.99030918627977E-05	-5.93539420515299E-08
0.918731689453125	43.4735858902397	1.219482421875E-07	0.92010498046875	3	1053	1.99030918627977E-05	-5.93539420515299E-08
0.916748046875	43.4934218901897	1.29302978515625E-07	0.91766357421875	3	1054	1.99030918627977E-05	-5.93539420515299E-08
0.914764404296875	43.5132578901396	1.3623046875E-07	0.9161376953125	3	1055	1.99030918627977E-05	-5.93539420515299E-08
0.91278076171875	43.5330938900895	1.429443359375E-07	0.91461181640625	3	1056	1.99030918627977E-05	-5.93539420515299E-08
0.910797119140625	43.5529298900394	1.49566650390625E-07	0.9124755859375	3	1057	1.99030918627977E-05	-5.93539420515299E-08
0.9088134765625	43.5727658899893	1.5496826171875E-07	0.91033935546875	3	1058	1.99030918627977E-05	-5.93539420515299E-08
0.906829833984375	43.5926018899393	1.6021728515625E-07	0.908203125	3	1059	1.99030918627977E-05	-5.93539420515299E-08
0.90484619140625	43.6124378898892	1.64520263671875E-07	0.90606689453125	3	1060	1.99030918627977E-05	-5.93539420515299E-08
0.902862548828125	43.6322738898391	1.6876220703125E-07	0.9033203125	3	1061	1.99030918627977E-05	-5.93539420515299E-08
0.90087890625	43.652109889789	1.7315673828125E-07	0.90240478515625	3	1062	1.99030918627977E-05	-5.93539420515299E-08
0.898895263671875	43.6719458897389	1.7791748046875E-07	0.9002685546875	3	1063	1.99030918627977E-05	-5.93539420515299E-08
0.89691162109375	43.6917818896889	1.82708740234375E-07	0.89813232421875	3	1064	1.99030918627977E-05	-5.93539420515299E-08
0.894927978515625	43.7116178896388	1.8701171875E-07	0.8966064453125	3	1065	1.99030918627977E-05	-5.93539420515299E-08
0.8929443359375	43.7314538895887	1.90460205078125E-07	0.89447021484375	3	1066	1.99030918627977E-05	-5.93539420515299E-08
0.890960693359375	43.7512898895386	1.9366455078125E-07	0.892333984375	3	1067	1.99030918627977E-05	-5.93539420515299E-08
0.88897705078125	43.7711258894885	1.95465087890625E-07	0.89080810546875	3	1068	1.99030918627977E-05	-5.93539420515299E-08
0.886993408203125	43.7909618894384	1.97265625E-07	0.8880615234375	3	1069	1.99030918627977E-05	-5.93539420515299E-08
0.885009765625	43.8107978893884	1.97998046875E-07	0.88653564453125	3	1070	1.99030918627977E-05	-5.93539420515299E-08
0.883026123046875	43.8306338893383	1.99066162109375E-07	0.8843994140625	3	1071	1.99030918627977E-05	-5.93539420515299E-08
0.88104248046875	43.8504698892882	2.00775146484375E-07	0.88226318359375	3	1072	1.99030918627977E-05	-5.93539420515299E-08
0.879058837890625	43.8703058892381	2.02606201171875E-07	0.88043212890625	3	1073	1.99030918627977E-05	-5.93539420515299E-08
0.8770751953125	43.890141889188	2.0367431640625E-07	0.8782958984375	3	1074	1.99030918627977E-05	-5.93539420515299E-08
0.875091552734375	43.909977889138	2.04437255859375E-07	0.87677001953125	3	1075	1.99030918627977E-05	-5.93539420515299E-08
0.87310791015625	43.9298138890879	2.0440673828125E-07	0.87493896484375	3	1076	1.99030918627977E-05	-5.93539420515299E-08
0.871124267578125	43.9496498890378	2.032470703125E-07	0.87188720703125	3	1077	1.99030918627977E-05	-5.93539420515299E-08
0.869140625	43.9694858889877	2.0123291015625E-07	0.870361328125	3	1078	1.99030918627977E-05	-5.93539420515299E-08
0.867156982421875	43.9893218889376	1.99737548828125E-07	0.86883544921875	3	1079	1.99030918627977E-05	-5.93539420515299E-08
0.86517333984375	44.0091578888876	1.9732666015625E-07	0.86669921875	3	1080	1.99030918627977E-05	-5.93539420515299E-08
0.863189697265625	44.0289938888375	1.95526123046875E-07	0.8642578125	3	1081	1.99030918627977E-05	-5.93539420515299E-08
0.8612060546875	44.0488298887874	1.93572998046875E-07	0.86273193359375	3	1082	1.99030918627977E-05	-5.93539420515299E-08
0.859222412109375	44.0686658887373	1.917724609375E-07	0.86151123046875	3	1083	1.99030918627977E-05	-5.93539420515299E-08
0.85723876953125	44.0885018886872	1.89300537109375E-07	0.85845947265625	3	1084	1.99030918627977E-05	-5.93539420515299E-08
0.855255126953125	44.1083378886372	1.86676025390625E-07	0.85693359375	3	1085	1.99030918627977E-05	-5.93539420515299E-08
0.853271484375	44.1281738885871	1.82708740234375E-07	0.8544921875	3	1086	1.99030918627977E-05	-5.93539420515299E-08
0.851287841796875	44.148009888537	1.7791748046875E-07	0.85296630859375	3	1087	1.99030918627977E-05	-5.93539420515299E-08
0.84930419921875	44.1678458884869	1.73004150390625E-07	0.8502197265625	3	1088	1.99030918627977E-05	-5.93539420515299E-08
0.847320556640625	44.1876818884368	1.6741943359375E-07	0.84808349609375	3	1089	1.99030918627977E-05	-5.93539420515299E-08
0.8453369140625	44.2075178883867	1.62384033203125E-07	0.84625244140625	3	1090	1.99030918627977E-05	-5.93539420515299E-08
0.843353271484375	44.2273538883367	1.5740966796875E-07	0.8441162109375	3	1091	1.99030918627977E-05	-5.93539420515299E-08
0.84136962890625	44.2471898882866	1.524658203125E-07	0.8428955078125	3	1092	1.99030918627977E-05	-5.93539420515299E-08
0.839385986328125	44.2670258882365	1.4727783203125E-07	0.84136962890625	3	1093	1.99030918627977E-05	-5.93539420515299E-08
0.83740234375	44.2868618881864	1.41571044921875E-07	0.83892822265625	3	1094	1.99030918627977E-05	-5.93539420515299E-08
0.835418701171875	44.3066978881363	1.3507080078125E-07	0.8367919921875	3	1095	1.99030918627977E-05	-5.93539420515299E-08
0.83343505859375	44.3265338880863	1.28173828125E-07	0.8349609375	3	1096	1.99030918627977E-05	-5.93539420515299E-08
0.831451416015625	44.3463698880362	1.20330810546875E-07	0.83221435546875	3	1097	1.99030918627977E-05	-5.93539420515299E-08
0.8294677734375	44.3662058879861	1.12457275390625E-07	0.8306884765625	3	1098	1.99030918627977E-05	-5.93539420515299E-08
0.827484130859375	44.386041887936	1.04705810546875E-07	0.82916259765625	3	1099	1.99030918627977E-05	-5.93539420515299E-08
0.82550048828125	44.4058778878859	9.6832275390625E-08	0.826416015625	3	1100	1.99030918627977E-05	-5.93539420515299E-08
0.823516845703125	44.4257138878359	8.9447021484375E-08	0.82550048828125	3	1101	1.99030918627977E-05	-5.93539420515299E-08
0.821533203125	44.4455498877858	8.16650390625E-08	0.8233642578125	3	1102	1.99030918627977E-05	-5.93539420515299E-08
0.819549560546875	44.4653858877357	7.38525390625E-08	0.82061767578125	3	1103	1.99030918627977E-05	-5.93539420515299E-08
0.81756591796875	44.4852218876856	6.60400390625E-08	0.819091796875	3	1104	1.99030918627977E-05	-5.93539420515299E-08
0.815582275390625	44.5050578876355	5.712890625E-08	0.81695556640625	3	1105	1.99030918627977E-05	-5.93539420515299E-08
0.8135986328125	44.5248938875854	4.779052734375E-08	0.81451416015625	3	1106	1.99030918627977E-05	-5.93539420515299E-08
0.811614990234375	44.5447298875354	3.85467529296875E-08	0.81268310546875	3	1107	1.99030918627977E-05	-5.93539420515299E-08
0.80963134765625	44.5645658874853	2.92572021484375E-08	0.81024169921875	3	1108	1.99030918627977E-05	-5.93539420515299E-08
0.807647705078125	44.5844018874352	1.99005126953125E-08	0.80902099609375	3	1109	1.99030918627977E-05	-5.93539420515299E-08
0.8056640625	44.6042378873851	1.055908203125E-08	0.80657958984375	3	1110	1.99030918627977E-05	-5.93539420515299E-08
0.803680419921875	44.624073887335	1.7913818359375E-09	0.804443359375	3	1111	1.99030918627977E-05	-5.93539420515299E-08
0.80169677734375	44.643909887285	-7.3486328125E-09	0.80322265625	3	1112	1.99030918627977E-05	-5.93539420515299E-08
0.799713134765625	44.6637458872349	-1.6497802734375E-08	0.8013916015625	3	1113	1.99030918627977E-05	-5.93539420515299E-08
0.80169677734375	44.6835818871848	3.1488037109375E-08	0.8026123046875	3	1114	1.99030918627977E-05	-5.93539420515299E-08
0.803680419921875	44.7034178871347	7.53173828125E-08	0.8050537109375	3	1115	1.99030918627977E-05	-5.93539420515299E-08
0.8056640625	44.7232538870846	1.1663818359375E-07	0.80718994140625	3	1116	1.99030918627977E-05	-5.93539420515299E-08
0.807647705078125	44.7430898870346	1.57135009765625E-07	0.80902099609375	3	1117	1.99030918627977E-05	-5.93539420515299E-08
0.80963134765625	44.7629258869845	1.9696044921875E-07	0.8111572265625	3	1118	1.99030918627977E-05	-5.93539420515299E-08
0.811614990234375	44.7827618869344	2.36663818359375E-07	0.8123779296875	3	1119	1.99030918627977E-05	-5.93539420515299E-08
0.8135986328125	44.8025978868843	2.763671875E-07	0.81573486328125	3	1120	1.99030918627977E-05	-5.93539420515299E-08
0.815582275390625	44.8224338868342	3.1561279296875E-07	0.81695556640625	3	1121	1.99030918627977E-05	-5.93539420515299E-08
0.81756591796875	44.8422698867842	3.55194091796875E-07	0.8184814453125	3	1122	1.99030918627977E-05	-5.93539420515299E-08
0.819549560546875	44.8621058867341	3.93096923828125E-07	0.8209228515625	3	1123	1.99030918627977E-05	-5.93539420515299E-08
0.821533203125	44.881941886684	4.31060791015625E-07	0.8233642578125	3	1124	1.99030918627977E-05	-5.93539420515299E-08
0.823516845703125	44.9017778866339	4.68780517578125E-07	0.82489013671875	3	1125	1.99030918627977E-05	-5.93539420515299E-08
0.82550048828125	44.9216138865838	5.05889892578125E-07	0.82672119140625	3	1126	1.99030918627977E-05	-5.93539420515299E-08
0.827484130859375	44.9414498865337	5.42755126953125E-07	0.82855224609375	3	1127	1.99030918627977E-05	-5.93539420515299E-08
0.8294677734375	44.9612858864837	5.7965087890625E-07	0.83099365234375	3	1128	1.99030918627977E-05	-5.93539420515299E-08
0.831451416015625	44.9811218864336	6.16302490234375E-07	0.83343505859375	3	1129	1.99030918627977E-05	-5.93539420515299E-08
0.83343505859375	45.0009578863835	6.5399169921875E-07	0.83465576171875	3	1130	1.99030918627977E-05	-5.93539420515299E-08
0.835418701171875	45.0207938863334	6.9000244140625E-07	0.8367919921875	3	1131	1.99030918627977E-05	-5.93539420515299E-08
0.83740234375	45.0406298862833	7.2357177734375E-07	0.83892822265625	3	1132	1.99030918627977E-05	-5.93539420515299E-08
0.839385986328125	45.0604658862333	7.5714111328125E-07	0.8404541015625	3	1133	1.99030918627977E-05	-5.93539420515299E-08
0.84136962890625	45.0803018861832	7.8887939453125E-07	0.84228515625	3	1134	1.99030918627977E-05	-5.93539420515299E-08
0.843353271484375	45.1001378861331	8.197021484375E-07	0.84442138671875	3	1135	1.99030918627977E-05	-5.93539420515299E-08
0.8453369140625	45.119973886083	8.502197265625E-07	0.84716796875	3	1136	1.99030918627977E-05	-5.93539420515299E-08
0.847320556640625	45.1398098860329	8.7982177734375E-07	0.8489990234375	3	1137	1.99030918627977E-05	-5.93539420515299E-08
0.84930419921875	45.1596458859829	9.0972900390625E-07	0.850830078125	3	1138	1.99030918627977E-05	-5.93539420515299E-08
0.851287841796875	45.1794818859328	9.3841552734375E-07	0.85296630859375	3	1139	1.99030918627977E-05	-5.93539420515299E-08
0.853271484375	45.1993178858827	9.65576171875E-07	0.85479736328125	3	1140	1.99030918627977E-05	-5.93539420515299E-08
0.855255126953125	45.2191538858326	9.92431640625E-07	0.85601806640625	3	1141	1.99030918627977E-05	-5.93539420515299E-08
0.85723876953125	45.2389898857825	1.01593017578125E-06	0.8587646484375	3	1142	1.99030918627977E-05	-5.93539420515299E-08
0.859222412109375	45.2588258857324	1.03912353515625E-06	0.86090087890625	3	1143	1.99030918627977E-05	-5.93539420515299E-08
0.8612060546875	45.2786618856824	1.0601806640625E-06	0.86212158203125	3	1144	1.99030918627977E-05	-5.93539420515299E-08
0.863189697265625	45.2984978856323	1.08123779296875E-06	0.8648681640625	3	1145	1.99030918627977E-05	-5.93539420515299E-08
0.86517333984375	45.3183338855822	1.10137939453125E-06	0.86669921875	3	1146	1.99030918627977E-05	-5.93539420515299E-08
0.867156982421875	45.3381698855321	1.1212158203125E-06	0.8685302734375	3	1147	1.99030918627977E-05	-5.93539420515299E-08
0.869140625	45.358005885482	1.1407470703125E-06	0.870361328125	3	1148	1.99030918627977E-05	-5.93539420515299E-08
0.871124267578125	45.377841885432	1.15936279296875E-06	0.8721923828125	3	1149	1.99030918627977E-05	-5.93539420515299E-08
0.87310791015625	45.3976778853819	1.1773681640625E-06	0.8740234375	3	1150	1.99030918627977E-05	-5.93539420515299E-08
0.875091552734375	45.4175138853318	1.19232177734375E-06	0.87677001953125	3	1151	1.99030918627977E-05	-5.93539420515299E-08
0.8770751953125	45.4373498852817	1.20635986328125E-06	0.87799072265625	3	1152	1.99030918627977E-05	-5.93539420515299E-08
0.879058837890625	45.4571858852316	1.21917724609375E-06	0.880126953125	3	1153	1.99030918627977E-05	-5.93539420515299E-08
0.88104248046875	45.4770218851816	1.23138427734375E-06	0.8819580078125	3	1154	1.99030918627977E-05	-5.93539420515299E-08
0.883026123046875	45.4968578851315	1.24298095703125E-06	0.8837890625	3	1155	1.99030918627977E-05	-5.93539420515299E-08
0.885009765625	45.5166938850814	1.25457763671875E-06	0.88653564453125	3	1156	1.99030918627977E-05	-5.93539420515299E-08
0.886993408203125	45.5365298850313	1.2664794921875E-06	0.8880615234375	3	1157	1.99030918627977E-05	-5.93539420515299E-08
0.88897705078125	45.5563658849812	1.27838134765625E-06	0.89080810546875	3	1158	1.99030918627977E-05	-5.93539420515299E-08
0.890960693359375	45.5762018849312	1.2896728515625E-06	0.892333984375	3	1159	1.99030918627977E-05	-5.93539420515299E-08
0.8929443359375	45.5960378848811	1.298828125E-06	0.89385986328125	3	1160	1.99030918627977E-05	-5.93539420515299E-08
0.894927978515625	45.615873884831	1.307373046875E-06	0.89630126953125	3	1161	1.99030918627977E-05	-5.93539420515299E-08
0.89691162109375	45.6357098847809	1.31317138671875E-06	0.8984375	3	1162	1.99030918627977E-05	-5.93539420515299E-08
0.898895263671875	45.6555458847308	1.31988525390625E-06	0.9002685546875	3	1163	1.99030918627977E-05	-5.93539420515299E-08
0.90087890625	45.6753818846807	1.326904296875E-06	0.90240478515625	3	1164	1.99030918627977E-05	-5.93539420515299E-08
0.902862548828125	45.6952178846307	1.3336181640625E-06	0.904541015625	3	1165	1.99030918627977E-05	-5.93539420515299E-08
0.90484619140625	45.7150538845806	1.341552734375E-06	0.90606689453125	3	1166	1.99030918627977E-05	-5.93539420515299E-08
0.906829833984375	45.7348898845305	1.34918212890625E-06	0.90789794921875	3	1167	1.99030918627977E-05	-5.93539420515299E-08
0.9088134765625	45.7547258844804	1.35650634765625E-06	0.91033935546875	3	1168	1.99030918627977E-05	-5.93539420515299E-08
0.910797119140625	45.7745618844303	1.36322021484375E-06	0.91217041015625	3	1169	1.99030918627977E-05	-5.93539420515299E-08
0.91278076171875	45.7943978843803	1.3690185546875E-06	0.91461181640625	3	1170	1.99030918627977E-05	-5.93539420515299E-08
0.914764404296875	45.8142338843302	1.37359619140625E-06	0.91583251953125	3	1171	1.99030918627977E-05	-5.93539420515299E-08
0.916748046875	45.8340698842801	1.37664794921875E-06	0.9173583984375	3	1172	1.99030918627977E-05	-5.93539420515299E-08
0.918731689453125	45.85390588423	1.38153076171875E-06	0.92010498046875	3	1173	1.99030918627977E-05	-5.93539420515299E-08
0.92071533203125	45.8737418841799	1.3861083984375E-06	0.9222412109375	3	1174	1.99030918627977E-05	-5.93539420515299E-08
0.922698974609375	45.8935778841299	1.3922119140625E-06	0.92376708984375	3	1175	1.99030918627977E-05	-5.93539420515299E-08
0.9246826171875	45.9134138840798	1.39862060546875E-06	0.9259033203125	3	1176	1.99030918627977E-05	-5.93539420515299E-08
0.926666259765625	45.9332498840297	1.4044189453125E-06	0.9283447265625	3	1177	1.99030918627977E-05	-5.93539420515299E-08
0.92864990234375	45.9530858839796	1.4111328125E-06	0.9295654296875	3	1178	1.99030918627977E-05	-5.93539420515299E-08
0.930633544921875	45.9729218839295	1.41571044921875E-06	0.93170166015625	3	1179	1.99030918627977E-05	-5.93539420515299E-08
0.9326171875	45.9927578838794	1.419677734375E-06	0.9332275390625	3	1180	1.99030918627977E-05	-5.93539420515299E-08
0.934600830078125	46.0125938838294	1.42364501953125E-06	0.93505859375	3	1181	1.99030918627977E-05	-5.93539420515299E-08
0.93658447265625	46.0324298837793	1.427001953125E-06	0.93780517578125	3	1182	1.99030918627977E-05	-5.93539420515299E-08
0.938568115234375	46.0522658837292	1.431884765625E-06	0.93963623046875	3	1183	1.99030918627977E-05	-5.93539420515299E-08
0.9405517578125	46.0721018836791	1.43768310546875E-06	0.941162109375	3	1184	1.99030918627977E-05	-5.93539420515299E-08
0.942535400390625	46.091937883629	1.4447021484375E-06	0.94390869140625	3	1185	1.99030918627977E-05	-5.93539420515299E-08
0.94451904296875	46.111773883579	1.4520263671875E-06	0.946044921875	3	1186	1.99030918627977E-05	-5.93539420515299E-08
0.946502685546875	46.1316098835289	1.458740234375E-06	0.94757080078125	3	1187	1.99030918627977E-05	-5.93539420515299E-08
0.948486328125	46.1514458834788	1.46392822265625E-06	0.95001220703125	3	1188	1.99030918627977E-05	-5.93539420515299E-08
0.950469970703125	46.1712818834287	1.46942138671875E-06	0.95123291015625	3	1189	1.99030918627977E-05	-5.93539420515299E-08
0.95245361328125	46.1911178833786	1.4739990234375E-06	0.95367431640625	3	1190	1.99030918627977E-05	-5.93539420515299E-08
0.954437255859375	46.2109538833286	1.47918701171875E-06	0.95550537109375	3	1191	1.99030918627977E-05	-5.93539420515299E-08
0.9564208984375	46.2307898832785	1.485595703125E-06	0.95794677734375	3	1192	1.99030918627977E-05	-5.93539420515299E-08
0.958404541015625	46.2506258832284	1.494140625E-06	0.95977783203125	3	1193	1.99030918627977E-05	-5.93539420515299E-08
0.96038818359375	46.2704618831783	1.50177001953125E-06	0.9613037109375	3	1194	1.99030918627977E-05	-5.93539420515299E-08
0.962371826171875	46.2902978831282	1.5106201171875E-06	0.96343994140625	3	1195	1.99030918627977E-05	-5.93539420515299E-08
0.96435546875	46.3101338830782	1.51947021484375E-06	0.96527099609375	3	1196	1.99030918627977E-05	-5.93539420515299E-08
0.966339111328125	46.3299698830281	1.52740478515625E-06	0.96710205078125	3	1197	1.99030918627977E-05	-5.93539420515299E-08
0.96832275390625	46.349805882978	1.534423828125E-06	0.97015380859375	3	1198	1.99030918627977E-05	-5.93539420515299E-08
0.970306396484375	46.3696418829279	1.541748046875E-06	0.9716796875	3	1199	1.99030918627977E-05	-5.93539420515299E-08
0.9722900390625	46.3894778828778	1.54998779296875E-06	0.9735107421875	3	1200	1.99030918627977E-05	-5.93539420515299E-08
0.974273681640625	46.4093138828277	1.55853271484375E-06	0.97564697265625	3	1201	1.99030918627977E-05	-5.93539420515299E-08
0.97625732421875	46.4291498827777	1.56951904296875E-06	0.97747802734375	3	1202	1.99030918627977E-05	-5.93539420515299E-08
0.978240966796875	46.4489858827276	1.5814208984375E-06	0.97991943359375	3	1203	1.99030918627977E-05	-5.93539420515299E-08
0.980224609375	46.4688218826775	1.59423828125E-06	0.98052978515625	3	1204	1.99030918627977E-05	-5.93539420515299E-08
0.982208251953125	46.4886578826274	1.6064453125E-06	0.98358154296875	3	1205	1.99030918627977E-05	-5.93539420515299E-08
0.98419189453125	46.5084938825773	1.61895751953125E-06	0.985107421875	3	1206	1.99030918627977E-05	-5.93539420515299E-08
0.986175537109375	46.5283298825273	1.63116455078125E-06	0.987548828125	3	1207	1.99030918627977E-05	-5.93539420515299E-08
0.9881591796875	46.5481658824772	1.64306640625E-06	0.98968505859375	3	1208	1.99030918627977E-05	-5.93539420515299E-08
0.990142822265625	46.5680018824271	1.65557861328125E-06	0.99151611328125	3	1209	1.99030918627977E-05	-5.93539420515299E-08
0.99212646484375	46.587837882377	1.66961669921875E-06	0.99334716796875	3	1210	1.99030918627977E-05	-5.93539420515299E-08
0.994110107421875	46.6076738823269	1.685791015625E-06	0.99517822265625	3	1211	1.99030918627977E-05	-5.93539420515299E-08
0.99609375	46.6275098822769	1.70318603515625E-06	0.99700927734375	3	1212	1.99030918627977E-05	-5.93539420515299E-08
0.998077392578125	46.6473458822268	1.722412109375E-06	0.9991455078125	3	1213	1.99030918627977E-05	-5.93539420515299E-08
1.00006103515625	46.6671818821767	1.74224853515625E-06	1.0015869140625	3	1214	1.99030918627977E-05	-5.93539420515299E-08
1.00204467773438	46.6870178821266	1.76177978515625E-06	1.00341796875	3	1215	1.99030918627977E-05	-5.93539420515299E-08
1.0040283203125	46.7068538820765	1.78192138671875E-06	1.0052490234375	3	1216	1.99030918627977E-05	-5.93539420515299E-08
1.00601196289063	46.7266898820264	1.80145263671875E-06	1.00677490234375	3	1217	1.99030918627977E-05	-5.93539420515299E-08
1.00799560546875	46.7465258819764	1.82373046875E-06	1.00982666015625	3	1218	1.99030918627977E-05	-5.93539420515299E-08
1.00997924804688	46.7663618819263	1.8463134765625E-06	1.01104736328125	3	1219	1.99030918627977E-05	-5.93539420515299E-08
1.011962890625	46.7861978818762	1.87164306640625E-06	1.01348876953125	3	1220	1.99030918627977E-05	-5.93539420515299E-08
1.01394653320313	46.8060338818261	1.898193359375E-06	1.015625	3	1221	1.99030918627977E-05	-5.93539420515299E-08
1.01593017578125	46.825869881776	1.927490234375E-06	1.01715087890625	3	1222	1.99030918627977E-05	-5.93539420515299E-08
1.01791381835938	46.845705881726	1.95770263671875E-06	1.01959228515625	3	1223	1.99030918627977E-05	-5.93539420515299E-08
1.0198974609375	46.8655418816759	1.98944091796875E-06	1.0211181640625	3	1224	1.99030918627977E-05	-5.93539420515299E-08
1.02188110351563	46.8853778816258	2.0220947265625E-06	1.02294921875	3	1225	1.99030918627977E-05	-5.93539420515299E-08
1.02386474609375	46.9052138815757	2.05474853515625E-06	1.02508544921875	3	1226	1.99030918627977E-05	-5.93539420515299E-08
1.02584838867188	46.9250498815256	2.08953857421875E-06	1.02691650390625	3	1227	1.99030918627977E-05	-5.93539420515299E-08
1.02783203125	46.9448858814756	2.12615966796875E-06	1.0284423828125	3	1228	1.99030918627977E-05	-5.93539420515299E-08
1.02981567382813	46.9647218814255	2.16552734375E-06	1.031494140625	3	1229	1.99030918627977E-05	-5.93539420515299E-08
1.03179931640625	46.9845578813754	2.2064208984375E-06	1.0333251953125	3	1230	1.99030918627977E-05	-5.93539420515299E-08
1.03378295898438	47.0043938813253	2.249755859375E-06	1.0345458984375	3	1231	1.99030918627977E-05	-5.93539420515299E-08
1.0357666015625	47.0242298812752	2.2955322265625E-06	1.0369873046875	3	1232	1.99030918627977E-05	-5.93539420515299E-08
1.03775024414063	47.0440658812252	2.34283447265625E-06	1.03912353515625	3	1233	1.99030918627977E-05	-5.93539420515299E-08
1.03973388671875	47.0639018811751	2.391357421875E-06	1.0406494140625	3	1234	1.99030918627977E-05	-5.93539420515299E-08
1.04171752929688	47.083737881125	2.4407958984375E-06	1.04248046875	3	1235	1.99030918627977E-05	-5.93539420515299E-08
1.043701171875	47.1035738810749	2.49267578125E-06	1.04461669921875	3	1236	1.99030918627977E-05	-5.93539420515299E-08
1.04568481445313	47.1234098810248	2.54608154296875E-06	1.04705810546875	3	1237	1.99030918627977E-05	-5.93539420515299E-08
1.04766845703125	47.1432458809747	2.60162353515625E-06	1.04888916015625	3	1238	1.99030918627977E-05	-5.93539420515299E-08
1.04965209960938	47.1630818809247	2.65960693359375E-06	1.0504150390625	3	1239	1.99030918627977E-05	-5.93539420515299E-08
1.0516357421875	47.1829178808746	2.7191162109375E-06	1.0528564453125	3	1240	1.99030918627977E-05	-5.93539420515299E-08
1.05361938476563	47.2027538808245	2.77984619140625E-06	1.05438232421875	3	1241	1.99030918627977E-05	-5.93539420515299E-08
1.05560302734375	47.2225898807744	2.841796875E-06	1.05712890625	3	1242	1.99030918627977E-05	-5.93539420515299E-08
1.05758666992188	47.2424258807243	2.90618896484375E-06	1.0595703125	3	1243	1.99030918627977E-05	-5.93539420515299E-08
1.0595703125	47.2622618806743	2.97149658203125E-06	1.060791015625	3	1244	1.99030918627977E-05	-5.93539420515299E-08
1.06155395507813	47.2820978806242	3.03802490234375E-06	1.0626220703125	3	1245	1.99030918627977E-05	-5.93539420515299E-08
1.06353759765625	47.3019338805741	3.10546875E-06	1.06475830078125	3	1246	1.99030918627977E-05	-5.93539420515299E-08
1.06552124023438	47.321769880524	3.17474365234375E-06	1.0662841796875	3	1247	1.99030918627977E-05	-5.93539420515299E-08
1.0675048828125	47.3416058804739	3.24462890625E-06	1.06903076171875	3	1248	1.99030918627977E-05	-5.93539420515299E-08
1.06948852539063	47.3614418804239	3.3148193359375E-06	1.07086181640625	3	1249	1.99030918627977E-05	-5.93539420515299E-08
1.07147216796875	47.3812778803738	3.38592529296875E-06	1.07208251953125	3	1250	1.99030918627977E-05	-5.93539420515299E-08
1.07345581054688	47.4011138803237	3.458251953125E-06	1.0748291015625	3	1251	1.99030918627977E-05	-5.93539420515299E-08
1.075439453125	47.4209498802736	3.5284423828125E-06	1.07696533203125	3	1252	1.99030918627977E-05	-5.93539420515299E-08
1.07742309570313	47.4407858802235	3.60076904296875E-06	1.07879638671875	3	1253	1.99030918627977E-05	-5.93539420515299E-08
1.07940673828125	47.4606218801734	3.671875E-06	1.080322265625	3	1254	1.99030918627977E-05	-5.93539420515299E-08
1.08139038085938	47.4804578801234	3.74359130859375E-06	1.08306884765625	3	1255	1.99030918627977E-05	-5.93539420515299E-08
1.0833740234375	47.5002938800733	3.8140869140625E-06	1.08428955078125	3	1256	1.99030918627977E-05	-5.93539420515299E-08
1.08535766601563	47.5201298800232	3.88427734375E-06	1.08642578125	3	1257	1.99030918627977E-05	-5.93539420515299E-08
1.08734130859375	47.5399658799731	3.95263671875E-06	1.08856201171875	3	1258	1.99030918627977E-05	-5.93539420515299E-08
1.08932495117188	47.559801879923	4.02008056640625E-06	1.09039306640625	3	1259	1.99030918627977E-05	-5.93539420515299E-08
1.09130859375	47.579637879873	4.0826416015625E-06	1.09222412109375	3	1260	1.99030918627977E-05	-5.93539420515299E-08
1.09329223632813	47.5994738798229	4.1473388671875E-06	1.0943603515625	3	1261	1.99030918627977E-05	-5.93539420515299E-08
1.09527587890625	47.6193098797728	4.21112060546875E-06	1.09649658203125	3	1262	1.99030918627977E-05	-5.93539420515299E-08
1.09725952148438	47.6391458797227	4.27093505859375E-06	1.0980224609375	3	1263	1.99030918627977E-05	-5.93539420515299E-08
1.0992431640625	47.6589818796726	4.327392578125E-06	1.10015869140625	3	1264	1.99030918627977E-05	-5.93539420515299E-08
1.10122680664063	47.6788178796226	4.3841552734375E-06	1.1029052734375	3	1265	1.99030918627977E-05	-5.93539420515299E-08
1.10321044921875	47.6986538795725	4.437255859375E-06	1.10443115234375	3	1266	1.99030918627977E-05	-5.93539420515299E-08
1.10519409179688	47.7184898795224	4.48760986328125E-06	1.10687255859375	3	1267	1.99030918627977E-05	-5.93539420515299E-08
1.107177734375	47.7383258794723	4.53399658203125E-06	1.1077880859375	3	1268	1.99030918627977E-05	-5.93539420515299E-08
1.10916137695313	47.7581618794222	4.5782470703125E-06	1.1102294921875	3	1269	1.99030918627977E-05	-5.93539420515299E-08
1.11114501953125	47.7779978793722	4.61883544921875E-06	1.112060546875	3	1270	1.99030918627977E-05	-5.93539420515299E-08
1.11312866210938	47.7978338793221	4.65576171875E-06	1.114501953125	3	1271	1.99030918627977E-05	-5.93539420515299E-08
1.1151123046875	47.817669879272	4.68994140625E-06	1.11541748046875	3	1272	1.99030918627977E-05	-5.93539420515299E-08
1.11709594726563	47.8375058792219	4.72259521484375E-06	1.1175537109375	3	1273	1.99030918627977E-05	-5.93539420515299E-08
1.11907958984375	47.8573418791718	4.7515869140625E-06	1.12030029296875	3	1274	1.99030918627977E-05	-5.93539420515299E-08
1.12106323242188	47.8771778791217	4.7784423828125E-06	1.12213134765625	3	1275	1.99030918627977E-05	-5.93539420515299E-08
1.123046875	47.8970138790717	4.8004150390625E-06	1.12396240234375	3	1276	1.99030918627977E-05	-5.93539420515299E-08
1.12503051757813	47.9168498790216	4.82086181640625E-06	1.12548828125	3	1277	1.99030918627977E-05	-5.93539420515299E-08
1.12701416015625	47.9366858789715	4.8358154296875E-06	1.1279296875	3	1278	1.99030918627977E-05	-5.93539420515299E-08
1.12899780273438	47.9565218789214	4.8486328125E-06	1.1297607421875	3	1279	1.99030918627977E-05	-5.93539420515299E-08
1.1309814453125	47.9763578788713	4.857177734375E-06	1.13189697265625	3	1280	1.99030918627977E-05	-5.93539420515299E-08
1.13296508789063	47.9961938788213	4.8651123046875E-06	1.13372802734375	3	1281	1.99030918627977E-05	-5.93539420515299E-08
1.13494873046875	48.0160298787712	4.87060546875E-06	1.13555908203125	3	1282	1.99030918627977E-05	-5.93539420515299E-08
1.13693237304688	48.0358658787211	4.87548828125E-06	1.13800048828125	3	1283	1.99030918627977E-05	-5.93539420515299E-08
1.138916015625	48.055701878671	4.87640380859375E-06	1.14013671875	3	1284	1.99030918627977E-05	-5.93539420515299E-08
1.14089965820313	48.0755378786209	4.8748779296875E-06	1.14166259765625	3	1285	1.99030918627977E-05	-5.93539420515299E-08
1.14288330078125	48.0953738785709	4.87060546875E-06	1.14410400390625	3	1286	1.99030918627977E-05	-5.93539420515299E-08
1.14486694335938	48.1152098785208	4.86358642578125E-06	1.146240234375	3	1287	1.99030918627977E-05	-5.93539420515299E-08
1.1468505859375	48.1350458784707	4.854736328125E-06	1.1480712890625	3	1288	1.99030918627977E-05	-5.93539420515299E-08
1.14883422851563	48.1548818784206	4.84405517578125E-06	1.14990234375	3	1289	1.99030918627977E-05	-5.93539420515299E-08
1.15081787109375	48.1747178783705	4.83154296875E-06	1.15264892578125	3	1290	1.99030918627977E-05	-5.93539420515299E-08
1.15280151367188	48.1945538783204	4.82086181640625E-06	1.15386962890625	3	1291	1.99030918627977E-05	-5.93539420515299E-08
1.15478515625	48.2143898782704	4.80712890625E-06	1.156005859375	3	1292	1.99030918627977E-05	-5.93539420515299E-08
1.15676879882813	48.2342258782203	4.793701171875E-06	1.158447265625	3	1293	1.99030918627977E-05	-5.93539420515299E-08
1.15875244140625	48.2540618781702	4.77874755859375E-06	1.15997314453125	3	1294	1.99030918627977E-05	-5.93539420515299E-08
1.16073608398438	48.2738978781201	4.7613525390625E-06	1.16241455078125	3	1295	1.99030918627977E-05	-5.93539420515299E-08
1.1627197265625	48.29373387807	4.74212646484375E-06	1.16363525390625	3	1296	1.99030918627977E-05	-5.93539420515299E-08
1.16470336914063	48.31356987802	4.7216796875E-06	1.165771484375	3	1297	1.99030918627977E-05	-5.93539420515299E-08
1.16668701171875	48.3334058779699	4.7003173828125E-06	1.168212890625	3	1298	1.99030918627977E-05	-5.93539420515299E-08
1.16867065429688	48.3532418779198	4.67926025390625E-06	1.17034912109375	3	1299	1.99030918627977E-05	-5.93539420515299E-08
1.170654296875	48.3730778778697	4.65850830078125E-06	1.171875	3	1300	1.99030918627977E-05	-5.93539420515299E-08
1.17263793945313	48.3929138778196	4.63958740234375E-06	1.173095703125	3	1301	1.99030918627977E-05	-5.93539420515299E-08
1.17462158203125	48.4127498777696	4.62005615234375E-06	1.17645263671875	3	1302	1.99030918627977E-05	-5.93539420515299E-08
1.17660522460938	48.4325858777195	4.6002197265625E-06	1.177978515625	3	1303	1.99030918627977E-05	-5.93539420515299E-08
1.1785888671875	48.4524218776694	4.5782470703125E-06	1.18011474609375	3	1304	1.99030918627977E-05	-5.93539420515299E-08
1.18057250976563	48.4722578776193	4.55474853515625E-06	1.181640625	3	1305	1.99030918627977E-05	-5.93539420515299E-08
1.18255615234375	48.4920938775692	4.53125E-06	1.18377685546875	3	1306	1.99030918627977E-05	-5.93539420515299E-08
1.18453979492188	48.5119298775192	4.50775146484375E-06	1.18560791015625	3	1307	1.99030918627977E-05	-5.93539420515299E-08
1.1865234375	48.5317658774691	4.4842529296875E-06	1.187744140625	3	1308	1.99030918627977E-05	-5.93539420515299E-08
1.18850708007813	48.551601877419	4.4635009765625E-06	1.18988037109375	3	1309	1.99030918627977E-05	-5.93539420515299E-08
1.19049072265625	48.5714378773689	4.44244384765625E-06	1.1920166015625	3	1310	1.99030918627977E-05	-5.93539420515299E-08
1.19247436523438	48.5912738773188	4.42291259765625E-06	1.1932373046875	3	1311	1.99030918627977E-05	-5.93539420515299E-08
1.1944580078125	48.6111098772687	4.4024658203125E-06	1.195068359375	3	1312	1.99030918627977E-05	-5.93539420515299E-08
1.19644165039063	48.6309458772187	4.3817138671875E-06	1.197509765625	3	1313	1.99030918627977E-05	-5.93539420515299E-08
1.19842529296875	48.6507818771686	4.359130859375E-06	1.1993408203125	3	1314	1.99030918627977E-05	-5.93539420515299E-08
1.20040893554688	48.6706178771185	4.33685302734375E-06	1.2017822265625	3	1315	1.99030918627977E-05	-5.93539420515299E-08
1.202392578125	48.6904538770684	4.31304931640625E-06	1.20361328125	3	1316	1.99030918627977E-05	-5.93539420515299E-08
1.20437622070313	48.7102898770183	4.2913818359375E-06	1.2060546875	3	1317	1.99030918627977E-05	-5.93539420515299E-08
1.20635986328125	48.7301258769683	4.2706298828125E-06	1.2078857421875	3	1318	1.99030918627977E-05	-5.93539420515299E-08
1.20834350585938	48.7499618769182	4.251708984375E-06	1.20941162109375	3	1319	1.99030918627977E-05	-5.93539420515299E-08
1.2103271484375	48.7697978768681	4.2333984375E-06	1.2115478515625	3	1320	1.99030918627977E-05	-5.93539420515299E-08
1.21231079101563	48.789633876818	4.217529296875E-06	1.2139892578125	3	1321	1.99030918627977E-05	-5.93539420515299E-08
1.21429443359375	48.8094698767679	4.19891357421875E-06	1.21551513671875	3	1322	1.99030918627977E-05	-5.93539420515299E-08
1.21627807617188	48.8293058767179	4.1790771484375E-06	1.21734619140625	3	1323	1.99030918627977E-05	-5.93539420515299E-08
1.21826171875	48.8491418766678	4.1583251953125E-06	1.21978759765625	3	1324	1.99030918627977E-05	-5.93539420515299E-08
1.22024536132813	48.8689778766177	4.1375732421875E-06	1.2213134765625	3	1325	1.99030918627977E-05	-5.93539420515299E-08
1.22222900390625	48.8888138765676	4.11773681640625E-06	1.22314453125	3	1326	1.99030918627977E-05	-5.93539420515299E-08
1.22421264648438	48.9086498765175	4.09912109375E-06	1.22589111328125	3	1327	1.99030918627977E-05	-5.93539420515299E-08
1.2261962890625	48.9284858764674	4.083251953125E-06	1.2274169921875	3	1328	1.99030918627977E-05	-5.93539420515299E-08
1.22817993164063	48.9483218764174	4.06829833984375E-06	1.22894287109375	3	1329	1.99030918627977E-05	-5.93539420515299E-08
1.23016357421875	48.9681578763673	4.0545654296875E-06	1.23138427734375	3	1330	1.99030918627977E-05	-5.93539420515299E-08
1.23214721679688	48.9879938763172	4.04022216796875E-06	1.23321533203125	3	1331	1.99030918627977E-05	-5.93539420515299E-08
1.234130859375	49.0078298762671	4.02374267578125E-06	1.2353515625	3	1332	1.99030918627977E-05	-5.93539420515299E-08
1.23611450195313	49.027665876217	4.00543212890625E-06	1.23687744140625	3	1333	1.99030918627977E-05	-5.93539420515299E-08
1.23809814453125	49.047501876167	3.98651123046875E-06	1.23931884765625	3	1334	1.99030918627977E-05	-5.93539420515299E-08
1.24008178710938	49.0673378761169	3.97003173828125E-06	1.24114990234375	3	1335	1.99030918627977E-05	-5.93539420515299E-08
1.2420654296875	49.0871738760668	3.953857421875E-06	1.24298095703125	3	1336	1.99030918627977E-05	-5.93539420515299E-08
1.24404907226563	49.1070098760167	3.93890380859375E-06	1.2451171875	3	1337	1.99030918627977E-05	-5.93539420515299E-08
1.24603271484375	49.1268458759666	3.927001953125E-06	1.24755859375	3	1338	1.99030918627977E-05	-5.93539420515299E-08
1.24801635742188	49.1466818759166	3.916015625E-06	1.2493896484375	3	1339	1.99030918627977E-05	-5.93539420515299E-08
1.25	49.1665178758665	3.90472412109375E-06	1.2506103515625	3	1340	1.99030918627977E-05	-5.93539420515299E-08
1.25198364257813	49.1863538758164	3.8922119140625E-06	1.2530517578125	3	1341	1.99030918627977E-05	-5.93539420515299E-08
1.25396728515625	49.2061898757663	3.8763427734375E-06	1.2554931640625	3	1342	1.99030918627977E-05	-5.93539420515299E-08
1.25595092773438	49.2260258757162	3.86077880859375E-06	1.25701904296875	3	1343	1.99030918627977E-05	-5.93539420515299E-08
1.2579345703125	49.2458618756662	3.84552001953125E-06	1.2591552734375	3	1344	1.99030918627977E-05	-5.93539420515299E-08
1.25991821289063	49.2656978756161	3.83209228515625E-06	1.26068115234375	3	1345	1.99030918627977E-05	-5.93539420515299E-08
1.26190185546875	49.285533875566	3.81988525390625E-06	1.2628173828125	3	1346	1.99030918627977E-05	-5.93539420515299E-08
1.26388549804688	49.3053698755159	3.81011962890625E-06	1.2646484375	3	1347	1.99030918627977E-05	-5.93539420515299E-08
1.265869140625	49.3252058754658	3.80126953125E-06	1.26678466796875	3	1348	1.99030918627977E-05	-5.93539420515299E-08
1.26785278320313	49.3450418754157	3.79241943359375E-06	1.26922607421875	3	1349	1.99030918627977E-05	-5.93539420515299E-08
1.26983642578125	49.3648778753657	3.7823486328125E-06	1.270751953125	3	1350	1.99030918627977E-05	-5.93539420515299E-08
1.27182006835938	49.3847138753156	3.7701416015625E-06	1.27227783203125	3	1351	1.99030918627977E-05	-5.93539420515299E-08
1.2738037109375	49.4045498752655	3.7567138671875E-06	1.27471923828125	3	1352	1.99030918627977E-05	-5.93539420515299E-08
1.27578735351563	49.4243858752154	3.743896484375E-06	1.2762451171875	3	1353	1.99030918627977E-05	-5.93539420515299E-08
1.27777099609375	49.4442218751653	3.7322998046875E-06	1.2786865234375	3	1354	1.99030918627977E-05	-5.93539420515299E-08
1.27975463867188	49.4640578751153	3.7213134765625E-06	1.2811279296875	3	1355	1.99030918627977E-05	-5.93539420515299E-08
1.28173828125	49.4838938750652	3.71246337890625E-06	1.282958984375	3	1356	1.99030918627977E-05	-5.93539420515299E-08
1.28372192382813	49.5037298750151	3.70513916015625E-06	1.28448486328125	3	1357	1.99030918627977E-05	-5.93539420515299E-08
1.28570556640625	49.523565874965	3.69842529296875E-06	1.28662109375	3	1358	1.99030918627977E-05	-5.93539420515299E-08
1.28768920898438	49.5434018749149	3.69110107421875E-06	1.2884521484375	3	1359	1.99030918627977E-05	-5.93539420515299E-08
1.2896728515625	49.5632378748649	3.68255615234375E-06	1.2908935546875	3	1360	1.99030918627977E-05	-5.93539420515299E-08
1.29165649414063	49.5830738748148	3.67156982421875E-06	1.292724609375	3	1361	1.99030918627977E-05	-5.93539420515299E-08
1.29364013671875	49.6029098747647	3.66058349609375E-06	1.295166015625	3	1362	1.99030918627977E-05	-5.93539420515299E-08
1.29562377929688	49.6227458747146	3.64990234375E-06	1.29669189453125	3	1363	1.99030918627977E-05	-5.93539420515299E-08
1.297607421875	49.6425818746645	3.64044189453125E-06	1.2982177734375	3	1364	1.99030918627977E-05	-5.93539420515299E-08
1.29959106445313	49.6624178746144	3.6328125E-06	1.3006591796875	3	1365	1.99030918627977E-05	-5.93539420515299E-08
1.30157470703125	49.6822538745644	3.62640380859375E-06	1.30279541015625	3	1366	1.99030918627977E-05	-5.93539420515299E-08
1.29959106445313	49.7020898745143	3.59283447265625E-06	1.3006591796875	3	1367	1.99030918627977E-05	-5.93539420515299E-08
1.297607421875	49.7219258744642	3.56964111328125E-06	1.29913330078125	3	1368	1.99030918627977E-05	-5.93539420515299E-08
1.29562377929688	49.7417618744141	3.54888916015625E-06	1.297607421875	3	1369	1.99030918627977E-05	-5.93539420515299E-08
1.29364013671875	49.761597874364	3.5284423828125E-06	1.29486083984375	3	1370	1.99030918627977E-05	-5.93539420515299E-08
1.29165649414063	49.781433874314	3.50921630859375E-06	1.292724609375	3	1371	1.99030918627977E-05	-5.93539420515299E-08
1.2896728515625	49.8012698742639	3.4906005859375E-06	1.290283203125	3	1372	1.99030918627977E-05	-5.93539420515299E-08
1.28768920898438	49.8211058742138	3.47259521484375E-06	1.28875732421875	3	1373	1.99030918627977E-05	-5.93539420515299E-08
1.28570556640625	49.8409418741637	3.4576416015625E-06	1.2872314453125	3	1374	1.99030918627977E-05	-5.93539420515299E-08
1.28372192382813	49.8607778741136	3.44451904296875E-06	1.28509521484375	3	1375	1.99030918627977E-05	-5.93539420515299E-08
1.28173828125	49.8806138740636	3.4326171875E-06	1.28265380859375	3	1376	1.99030918627977E-05	-5.93539420515299E-08
1.27975463867188	49.9004498740135	3.42132568359375E-06	1.280517578125	3	1377	1.99030918627977E-05	-5.93539420515299E-08
1.27777099609375	49.9202858739634	3.40789794921875E-06	1.27899169921875	3	1378	1.99030918627977E-05	-5.93539420515299E-08
1.27578735351563	49.9401218739133	3.39385986328125E-06	1.27593994140625	3	1379	1.99030918627977E-05	-5.93539420515299E-08
1.2738037109375	49.9599578738632	3.3795166015625E-06	1.27471923828125	3	1380	1.99030918627977E-05	-5.93539420515299E-08
1.27182006835938	49.9797938738132	3.3642578125E-06	1.27288818359375	3	1381	1.99030918627977E-05	-5.93539420515299E-08
1.26983642578125	49.9996298737631	3.35052490234375E-06	1.270751953125	3	1382	1.99030918627977E-05	-5.93539420515299E-08
1.26785278320313	50.019465873713	3.3380126953125E-06	1.26861572265625	3	1383	1.99030918627977E-05	-5.93539420515299E-08
1.265869140625	50.0393018736629	3.32550048828125E-06	1.26708984375	3	1384	1.99030918627977E-05	-5.93539420515299E-08
1.26388549804688	50.0591378736128	3.3148193359375E-06	1.26495361328125	3	1385	1.99030918627977E-05	-5.93539420515299E-08
1.26190185546875	50.0789738735627	3.3050537109375E-06	1.26220703125	3	1386	1.99030918627977E-05	-5.93539420515299E-08
1.25991821289063	50.0988098735127	3.2940673828125E-06	1.26129150390625	3	1387	1.99030918627977E-05	-5.93539420515299E-08
1.2579345703125	50.1186458734626	3.2818603515625E-06	1.25823974609375	3	1388	1.99030918627977E-05	-5.93539420515299E-08
1.25595092773438	50.1384818734125	3.26873779296875E-06	1.25701904296875	3	1389	1.99030918627977E-05	-5.93539420515299E-08
1.25396728515625	50.1583178733624	3.25469970703125E-06	1.25518798828125	3	1390	1.99030918627977E-05	-5.93539420515299E-08
1.25198364257813	50.1781538733123	3.24127197265625E-06	1.2530517578125	3	1391	1.99030918627977E-05	-5.93539420515299E-08
1.25	50.1979898732623	3.22845458984375E-06	1.25091552734375	3	1392	1.99030918627977E-05	-5.93539420515299E-08
1.24801635742188	50.2178258732122	3.216552734375E-06	1.24969482421875	3	1393	1.99030918627977E-05	-5.93539420515299E-08
1.24603271484375	50.2376618731621	3.20556640625E-06	1.24725341796875	3	1394	1.99030918627977E-05	-5.93539420515299E-08
1.24404907226563	50.257497873112	3.19610595703125E-06	1.24542236328125	3	1395	1.99030918627977E-05	-5.93539420515299E-08
1.2420654296875	50.2773338730619	3.1854248046875E-06	1.24298095703125	3	1396	1.99030918627977E-05	-5.93539420515299E-08
1.24008178710938	50.2971698730119	3.1732177734375E-06	1.241455078125	3	1397	1.99030918627977E-05	-5.93539420515299E-08
1.23809814453125	50.3170058729618	3.16009521484375E-06	1.23992919921875	3	1398	1.99030918627977E-05	-5.93539420515299E-08
1.23611450195313	50.3368418729117	3.14544677734375E-06	1.23748779296875	3	1399	1.99030918627977E-05	-5.93539420515299E-08
1.234130859375	50.3566778728616	3.13140869140625E-06	1.23504638671875	3	1400	1.99030918627977E-05	-5.93539420515299E-08
1.23214721679688	50.3765138728115	3.11859130859375E-06	1.23291015625	3	1401	1.99030918627977E-05	-5.93539420515299E-08
1.23016357421875	50.3963498727614	3.10516357421875E-06	1.2310791015625	3	1402	1.99030918627977E-05	-5.93539420515299E-08
1.22817993164063	50.4161858727114	3.09326171875E-06	1.22955322265625	3	1403	1.99030918627977E-05	-5.93539420515299E-08
1.2261962890625	50.4360218726613	3.0816650390625E-06	1.22711181640625	3	1404	1.99030918627977E-05	-5.93539420515299E-08
1.22421264648438	50.4558578726112	3.07098388671875E-06	1.2249755859375	3	1405	1.99030918627977E-05	-5.93539420515299E-08
1.22222900390625	50.4756938725611	3.05877685546875E-06	1.22344970703125	3	1406	1.99030918627977E-05	-5.93539420515299E-08
1.22024536132813	50.495529872511	3.04412841796875E-06	1.2213134765625	3	1407	1.99030918627977E-05	-5.93539420515299E-08
1.21826171875	50.515365872461	3.02825927734375E-06	1.21978759765625	3	1408	1.99030918627977E-05	-5.93539420515299E-08
1.21627807617188	50.5352018724109	3.013916015625E-06	1.21734619140625	3	1409	1.99030918627977E-05	-5.93539420515299E-08
1.21429443359375	50.5550378723608	2.99835205078125E-06	1.2152099609375	3	1410	1.99030918627977E-05	-5.93539420515299E-08
1.21231079101563	50.5748738723107	2.9833984375E-06	1.21337890625	3	1411	1.99030918627977E-05	-5.93539420515299E-08
1.2103271484375	50.5947098722606	2.96905517578125E-06	1.21124267578125	3	1412	1.99030918627977E-05	-5.93539420515299E-08
1.20834350585938	50.6145458722106	2.95623779296875E-06	1.21002197265625	3	1413	1.99030918627977E-05	-5.93539420515299E-08
1.20635986328125	50.6343818721605	2.94189453125E-06	1.20758056640625	3	1414	1.99030918627977E-05	-5.93539420515299E-08
1.20437622070313	50.6542178721104	2.92724609375E-06	1.2054443359375	3	1415	1.99030918627977E-05	-5.93539420515299E-08
1.202392578125	50.6740538720603	2.91168212890625E-06	1.20361328125	3	1416	1.99030918627977E-05	-5.93539420515299E-08
1.20040893554688	50.6938898720102	2.89459228515625E-06	1.20147705078125	3	1417	1.99030918627977E-05	-5.93539420515299E-08
1.19842529296875	50.7137258719602	2.87567138671875E-06	1.199951171875	3	1418	1.99030918627977E-05	-5.93539420515299E-08
1.19644165039063	50.7335618719101	2.857666015625E-06	1.19781494140625	3	1419	1.99030918627977E-05	-5.93539420515299E-08
1.1944580078125	50.75339787186	2.8399658203125E-06	1.195068359375	3	1420	1.99030918627977E-05	-5.93539420515299E-08
1.19247436523438	50.7732338718099	2.8216552734375E-06	1.19384765625	3	1421	1.99030918627977E-05	-5.93539420515299E-08
1.19049072265625	50.7930698717598	2.80487060546875E-06	1.19110107421875	3	1422	1.99030918627977E-05	-5.93539420515299E-08
1.18850708007813	50.8129058717097	2.78778076171875E-06	1.1895751953125	3	1423	1.99030918627977E-05	-5.93539420515299E-08
1.1865234375	50.8327418716597	2.77008056640625E-06	1.187744140625	3	1424	1.99030918627977E-05	-5.93539420515299E-08
1.18453979492188	50.8525778716096	2.75146484375E-06	1.1859130859375	3	1425	1.99030918627977E-05	-5.93539420515299E-08
1.18255615234375	50.8724138715595	2.73040771484375E-06	1.18377685546875	3	1426	1.99030918627977E-05	-5.93539420515299E-08
1.18057250976563	50.8922498715094	2.70904541015625E-06	1.18194580078125	3	1427	1.99030918627977E-05	-5.93539420515299E-08
1.1785888671875	50.9120858714593	2.685546875E-06	1.17889404296875	3	1428	1.99030918627977E-05	-5.93539420515299E-08
1.17660522460938	50.9319218714093	2.66387939453125E-06	1.1773681640625	3	1429	1.99030918627977E-05	-5.93539420515299E-08
1.17462158203125	50.9517578713592	2.64129638671875E-06	1.17584228515625	3	1430	1.99030918627977E-05	-5.93539420515299E-08
1.17263793945313	50.9715938713091	2.61871337890625E-06	1.17401123046875	3	1431	1.99030918627977E-05	-5.93539420515299E-08
1.170654296875	50.991429871259	2.596435546875E-06	1.171875	3	1432	1.99030918627977E-05	-5.93539420515299E-08
1.16867065429688	51.0112658712089	2.57537841796875E-06	1.16973876953125	3	1433	1.99030918627977E-05	-5.93539420515299E-08
1.16668701171875	51.0311018711589	2.55126953125E-06	1.16790771484375	3	1434	1.99030918627977E-05	-5.93539420515299E-08
1.16470336914063	51.0509378711088	2.5250244140625E-06	1.165771484375	3	1435	1.99030918627977E-05	-5.93539420515299E-08
1.1627197265625	51.0707738710587	2.49786376953125E-06	1.16424560546875	3	1436	1.99030918627977E-05	-5.93539420515299E-08
1.16073608398438	51.0906098710086	2.470703125E-06	1.16180419921875	3	1437	1.99030918627977E-05	-5.93539420515299E-08
1.15875244140625	51.1104458709585	2.44140625E-06	1.15936279296875	3	1438	1.99030918627977E-05	-5.93539420515299E-08
1.15676879882813	51.1302818709084	2.41363525390625E-06	1.15814208984375	3	1439	1.99030918627977E-05	-5.93539420515299E-08
1.15478515625	51.1501178708584	2.38525390625E-06	1.1553955078125	3	1440	1.99030918627977E-05	-5.93539420515299E-08
1.15280151367188	51.1699538708083	2.35595703125E-06	1.15386962890625	3	1441	1.99030918627977E-05	-5.93539420515299E-08
1.15081787109375	51.1897898707582	2.3272705078125E-06	1.15203857421875	3	1442	1.99030918627977E-05	-5.93539420515299E-08
1.14883422851563	51.2096258707081	2.29583740234375E-06	1.1505126953125	3	1443	1.99030918627977E-05	-5.93539420515299E-08
1.1468505859375	51.229461870658	2.26470947265625E-06	1.14715576171875	3	1444	1.99030918627977E-05	-5.93539420515299E-08
1.14486694335938	51.249297870608	2.23114013671875E-06	1.146240234375	3	1445	1.99030918627977E-05	-5.93539420515299E-08
1.14288330078125	51.2691338705579	2.19635009765625E-06	1.14410400390625	3	1446	1.99030918627977E-05	-5.93539420515299E-08
1.14089965820313	51.2889698705078	2.16156005859375E-06	1.14227294921875	3	1447	1.99030918627977E-05	-5.93539420515299E-08
1.138916015625	51.3088058704577	2.125244140625E-06	1.14044189453125	3	1448	1.99030918627977E-05	-5.93539420515299E-08
1.13693237304688	51.3286418704076	2.0904541015625E-06	1.1383056640625	3	1449	1.99030918627977E-05	-5.93539420515299E-08
1.13494873046875	51.3484778703576	2.05352783203125E-06	1.1358642578125	3	1450	1.99030918627977E-05	-5.93539420515299E-08
1.13296508789063	51.3683138703075	2.01690673828125E-06	1.13372802734375	3	1451	1.99030918627977E-05	-5.93539420515299E-08
1.1309814453125	51.3881498702574	1.97906494140625E-06	1.13189697265625	3	1452	1.99030918627977E-05	-5.93539420515299E-08
1.12899780273438	51.4079858702073	1.9415283203125E-06	1.13067626953125	3	1453	1.99030918627977E-05	-5.93539420515299E-08
1.12701416015625	51.4278218701572	1.90155029296875E-06	1.1279296875	3	1454	1.99030918627977E-05	-5.93539420515299E-08
1.12503051757813	51.4476578701072	1.8603515625E-06	1.12640380859375	3	1455	1.99030918627977E-05	-5.93539420515299E-08
1.123046875	51.4674938700571	1.81793212890625E-06	1.124267578125	3	1456	1.99030918627977E-05	-5.93539420515299E-08
1.12106323242188	51.487329870007	1.77581787109375E-06	1.12213134765625	3	1457	1.99030918627977E-05	-5.93539420515299E-08
1.11907958984375	51.5071658699569	1.7315673828125E-06	1.12030029296875	3	1458	1.99030918627977E-05	-5.93539420515299E-08
1.11709594726563	51.5270018699068	1.68853759765625E-06	1.1181640625	3	1459	1.99030918627977E-05	-5.93539420515299E-08
1.1151123046875	51.5468378698567	1.64581298828125E-06	1.11602783203125	3	1460	1.99030918627977E-05	-5.93539420515299E-08
1.11312866210938	51.5666738698067	1.60247802734375E-06	1.114501953125	3	1461	1.99030918627977E-05	-5.93539420515299E-08
1.11114501953125	51.5865098697566	1.5582275390625E-06	1.11328125	3	1462	1.99030918627977E-05	-5.93539420515299E-08
1.10916137695313	51.6063458697065	1.51275634765625E-06	1.11053466796875	3	1463	1.99030918627977E-05	-5.93539420515299E-08
1.107177734375	51.6261818696564	1.46636962890625E-06	1.1083984375	3	1464	1.99030918627977E-05	-5.93539420515299E-08
1.10519409179688	51.6460178696063	1.42059326171875E-06	1.10626220703125	3	1465	1.99030918627977E-05	-5.93539420515299E-08
1.10321044921875	51.6658538695563	1.3739013671875E-06	1.10443115234375	3	1466	1.99030918627977E-05	-5.93539420515299E-08
1.10122680664063	51.6856898695062	1.32659912109375E-06	1.10260009765625	3	1467	1.99030918627977E-05	-5.93539420515299E-08
1.0992431640625	51.7055258694561	1.28021240234375E-06	1.10015869140625	3	1468	1.99030918627977E-05	-5.93539420515299E-08
1.09725952148438	51.725361869406	1.23321533203125E-06	1.09893798828125	3	1469	1.99030918627977E-05	-5.93539420515299E-08
1.09527587890625	51.7451978693559	1.18621826171875E-06	1.09649658203125	3	1470	1.99030918627977E-05	-5.93539420515299E-08
1.09329223632813	51.7650338693059	1.138916015625E-06	1.09466552734375	3	1471	1.99030918627977E-05	-5.93539420515299E-08
1.09130859375	51.7848698692558	1.0931396484375E-06	1.09222412109375	3	1472	1.99030918627977E-05	-5.93539420515299E-08
1.08932495117188	51.8047058692057	1.0467529296875E-06	1.090087890625	3	1473	1.99030918627977E-05	-5.93539420515299E-08
1.08734130859375	51.8245418691556	1.0009765625E-06	1.08856201171875	3	1474	1.99030918627977E-05	-5.93539420515299E-08
1.08535766601563	51.8443778691055	9.552001953125E-07	1.08612060546875	3	1475	1.99030918627977E-05	-5.93539420515299E-08
1.0833740234375	51.8642138690554	9.0850830078125E-07	1.085205078125	3	1476	1.99030918627977E-05	-5.93539420515299E-08
1.08139038085938	51.8840498690054	8.636474609375E-07	1.0833740234375	3	1477	1.99030918627977E-05	-5.93539420515299E-08
1.07940673828125	51.9038858689553	8.1817626953125E-07	1.0809326171875	3	1478	1.99030918627977E-05	-5.93539420515299E-08
1.07742309570313	51.9237218689052	7.757568359375E-07	1.07879638671875	3	1479	1.99030918627977E-05	-5.93539420515299E-08
1.075439453125	51.9435578688551	7.318115234375E-07	1.07666015625	3	1480	1.99030918627977E-05	-5.93539420515299E-08
1.07345581054688	51.963393868805	6.9000244140625E-07	1.07513427734375	3	1481	1.99030918627977E-05	-5.93539420515299E-08
1.07147216796875	51.983229868755	6.475830078125E-07	1.07330322265625	3	1482	1.99030918627977E-05	-5.93539420515299E-08
1.06948852539063	52.0030658687049	6.0699462890625E-07	1.070556640625	3	1483	1.99030918627977E-05	-5.93539420515299E-08
1.0675048828125	52.0229018686548	5.670166015625E-07	1.0693359375	3	1484	1.99030918627977E-05	-5.93539420515299E-08
1.06552124023438	52.0427378686047	5.267333984375E-07	1.06658935546875	3	1485	1.99030918627977E-05	-5.93539420515299E-08
1.06353759765625	52.0625738685546	4.8828125E-07	1.064453125	3	1486	1.99030918627977E-05	-5.93539420515299E-08
1.06155395507813	52.0824098685046	4.50531005859375E-07	1.0626220703125	3	1487	1.99030918627977E-05	-5.93539420515299E-08
1.0595703125	52.1022458684545	4.14459228515625E-07	1.06048583984375	3	1488	1.99030918627977E-05	-5.93539420515299E-08
1.05758666992188	52.1220818684044	3.7982177734375E-07	1.0589599609375	3	1489	1.99030918627977E-05	-5.93539420515299E-08
1.05560302734375	52.1419178683543	3.4674072265625E-07	1.05682373046875	3	1490	1.99030918627977E-05	-5.93539420515299E-08
1.05361938476563	52.1617538683042	3.12103271484375E-07	1.0546875	3	1491	1.99030918627977E-05	-5.93539420515299E-08
1.0516357421875	52.1815898682542	2.81280517578125E-07	1.0528564453125	3	1492	1.99030918627977E-05	-5.93539420515299E-08
1.04965209960938	52.2014258682041	2.5048828125E-07	1.05133056640625	3	1493	1.99030918627977E-05	-5.93539420515299E-08
1.04766845703125	52.221261868154	2.21466064453125E-07	1.0491943359375	3	1494	1.99030918627977E-05	-5.93539420515299E-08
1.04568481445313	52.2410978681039	1.9244384765625E-07	1.0467529296875	3	1495	1.99030918627977E-05	-5.93539420515299E-08
1.043701171875	52.2609338680538	1.6595458984375E-07	1.04461669921875	3	1496	1.99030918627977E-05	-5.93539420515299E-08
1.04171752929688	52.2807698680037	1.405029296875E-07	1.0430908203125	3	1497	1.99030918627977E-05	-5.93539420515299E-08
1.03973388671875	52.3006058679537	1.1590576171875E-07	1.0406494140625	3	1498	1.99030918627977E-05	-5.93539420515299E-08
1.03775024414063	52.3204418679036	9.3231201171875E-08	1.03912353515625	3	1499	1.99030918627977E-05	-5.93539420515299E-08
1.0357666015625	52.3402778678535	7.1868896484375E-08	1.03759765625	3	1500	1.99030918627977E-05	-5.93539420515299E-08
1.03378295898438	52.3601138678034	5.2215576171875E-08	1.03515625	3	1501	1.99030918627977E-05	-5.93539420515299E-08
1.03179931640625	52.3799498677533	3.26751708984375E-08	1.03271484375	3	1502	1.99030918627977E-05	-5.93539420515299E-08
1.02981567382813	52.3997858677033	1.47003173828125E-08	1.03179931640625	3	1503	1.99030918627977E-05	-5.93539420515299E-08
1.02783203125	52.4196218676532	-2.728271484375E-09	1.029052734375	3	1504	1.99030918627977E-05	-5.93539420515299E-08
1.02584838867188	52.4394578676031	-1.87255859375E-08	1.02752685546875	3	1505	1.99030918627977E-05	-5.93539420515299E-08
1.02386474609375	52.459293867553	-3.321533203125E-08	1.0247802734375	3	1506	1.99030918627977E-05	-5.93539420515299E-08
1.02188110351563	52.4791298675029	-4.669189453125E-08	1.02294921875	3	1507	1.99030918627977E-05	-5.93539420515299E-08
1.0198974609375	52.4989658674529	-5.865478515625E-08	1.02081298828125	3	1508	1.99030918627977E-05	-5.93539420515299E-08
1.01791381835938	52.5188018674028	-6.9793701171875E-08	1.01959228515625	3	1509	1.99030918627977E-05	-5.93539420515299E-08
1.01593017578125	52.5386378673527	-7.9071044921875E-08	1.01776123046875	3	1510	1.99030918627977E-05	-5.93539420515299E-08
1.01394653320313	52.5584738673026	-8.7799072265625E-08	1.015625	3	1511	1.99030918627977E-05	-5.93539420515299E-08
1.011962890625	52.5783098672525	-9.5367431640625E-08	1.01318359375	3	1512	1.99030918627977E-05	-5.93539420515299E-08
1.00997924804688	52.5981458672024	-1.0296630859375E-07	1.0113525390625	3	1513	1.99030918627977E-05	-5.93539420515299E-08
1.00799560546875	52.6179818671524	-1.10015869140625E-07	1.0089111328125	3	1514	1.99030918627977E-05	-5.93539420515299E-08
1.00601196289063	52.6378178671023	-1.1614990234375E-07	1.0076904296875	3	1515	1.99030918627977E-05	-5.93539420515299E-08
1.0040283203125	52.6576538670522	-1.204833984375E-07	1.00494384765625	3	1516	1.99030918627977E-05	-5.93539420515299E-08
1.00204467773438	52.6774898670021	-1.24237060546875E-07	1.00341796875	3	1517	1.99030918627977E-05	-5.93539420515299E-08
1.00006103515625	52.697325866952	-1.2713623046875E-07	1.00128173828125	3	1518	1.99030918627977E-05	-5.93539420515299E-08
