Potential applied (V)	Time (s)	WE(1).Current (A)	WE(1).Potential (V)	Scan	Index	Q+	Q-
0.998077392578125	47.7680578793972	-2.9327392578125E-07	0.99945068359375	2	809	1.58412507362664E-05	-4.64435961097479E-06
0.99609375	47.7878938793472	-3.02764892578125E-07	0.9967041015625	2	810	1.58412507362664E-05	-4.64435961097479E-06
0.994110107421875	47.8077298792971	-3.11431884765625E-07	0.99517822265625	2	811	1.58412507362664E-05	-4.64435961097479E-06
0.99212646484375	47.827565879247	-3.20404052734375E-07	0.99334716796875	2	812	1.58412507362664E-05	-4.64435961097479E-06
0.990142822265625	47.8474018791969	-3.28582763671875E-07	0.99151611328125	2	813	1.58412507362664E-05	-4.64435961097479E-06
0.9881591796875	47.8672378791468	-3.3648681640625E-07	0.98846435546875	2	814	1.58412507362664E-05	-4.64435961097479E-06
0.986175537109375	47.8870738790968	-3.45245361328125E-07	0.987548828125	2	815	1.58412507362664E-05	-4.64435961097479E-06
0.98419189453125	47.9069098790467	-3.52691650390625E-07	0.98541259765625	2	816	1.58412507362664E-05	-4.64435961097479E-06
0.982208251953125	47.9267458789966	-3.6126708984375E-07	0.9832763671875	2	817	1.58412507362664E-05	-4.64435961097479E-06
0.980224609375	47.9465818789465	-3.67706298828125E-07	0.9820556640625	2	818	1.58412507362664E-05	-4.64435961097479E-06
0.978240966796875	47.9664178788964	-3.756103515625E-07	0.97930908203125	2	819	1.58412507362664E-05	-4.64435961097479E-06
0.97625732421875	47.9862538788464	-3.824462890625E-07	0.9771728515625	2	820	1.58412507362664E-05	-4.64435961097479E-06
0.974273681640625	48.0060898787963	-3.89434814453125E-07	0.97503662109375	2	821	1.58412507362664E-05	-4.64435961097479E-06
0.9722900390625	48.0259258787462	-3.9532470703125E-07	0.97381591796875	2	822	1.58412507362664E-05	-4.64435961097479E-06
0.970306396484375	48.0457618786961	-4.017333984375E-07	0.9716796875	2	823	1.58412507362664E-05	-4.64435961097479E-06
0.96832275390625	48.065597878646	-4.0850830078125E-07	0.96954345703125	2	824	1.58412507362664E-05	-4.64435961097479E-06
0.966339111328125	48.0854338785959	-4.14215087890625E-07	0.96771240234375	2	825	1.58412507362664E-05	-4.64435961097479E-06
0.96435546875	48.1052698785459	-4.20257568359375E-07	0.9661865234375	2	826	1.58412507362664E-05	-4.64435961097479E-06
0.962371826171875	48.1251058784958	-4.25750732421875E-07	0.96343994140625	2	827	1.58412507362664E-05	-4.64435961097479E-06
0.96038818359375	48.1449418784457	-4.31915283203125E-07	0.96099853515625	2	828	1.58412507362664E-05	-4.64435961097479E-06
0.958404541015625	48.1647778783956	-4.3731689453125E-07	0.9588623046875	2	829	1.58412507362664E-05	-4.64435961097479E-06
0.9564208984375	48.1846138783455	-4.42138671875E-07	0.95733642578125	2	830	1.58412507362664E-05	-4.64435961097479E-06
0.954437255859375	48.2044498782955	-4.47967529296875E-07	0.955810546875	2	831	1.58412507362664E-05	-4.64435961097479E-06
0.95245361328125	48.2242858782454	-4.5306396484375E-07	0.9539794921875	2	832	1.58412507362664E-05	-4.64435961097479E-06
0.950469970703125	48.2441218781953	-4.5794677734375E-07	0.9515380859375	2	833	1.58412507362664E-05	-4.64435961097479E-06
0.948486328125	48.2639578781452	-4.63134765625E-07	0.94970703125	2	834	1.58412507362664E-05	-4.64435961097479E-06
0.946502685546875	48.2837938780951	-4.676513671875E-07	0.94757080078125	2	835	1.58412507362664E-05	-4.64435961097479E-06
0.94451904296875	48.3036298780451	-4.7283935546875E-07	0.94573974609375	2	836	1.58412507362664E-05	-4.64435961097479E-06
0.942535400390625	48.323465877995	-4.77203369140625E-07	0.94329833984375	2	837	1.58412507362664E-05	-4.64435961097479E-06
0.9405517578125	48.3433018779449	-4.81536865234375E-07	0.941162109375	2	838	1.58412507362664E-05	-4.64435961097479E-06
0.938568115234375	48.3631378778948	-4.86083984375E-07	0.94024658203125	2	839	1.58412507362664E-05	-4.64435961097479E-06
0.93658447265625	48.3829738778447	-4.903564453125E-07	0.93780517578125	2	840	1.58412507362664E-05	-4.64435961097479E-06
0.934600830078125	48.4028098777947	-4.951171875E-07	0.93597412109375	2	841	1.58412507362664E-05	-4.64435961097479E-06
0.9326171875	48.4226458777446	-4.991455078125E-07	0.93414306640625	2	842	1.58412507362664E-05	-4.64435961097479E-06
0.930633544921875	48.4424818776945	-5.03173828125E-07	0.93170166015625	2	843	1.58412507362664E-05	-4.64435961097479E-06
0.92864990234375	48.4623178776444	-5.0787353515625E-07	0.92987060546875	2	844	1.58412507362664E-05	-4.64435961097479E-06
0.926666259765625	48.4821538775943	-5.1202392578125E-07	0.9283447265625	2	845	1.58412507362664E-05	-4.64435961097479E-06
0.9246826171875	48.5019898775442	-5.1617431640625E-07	0.9259033203125	2	846	1.58412507362664E-05	-4.64435961097479E-06
0.922698974609375	48.5218258774942	-5.20782470703125E-07	0.92376708984375	2	847	1.58412507362664E-05	-4.64435961097479E-06
0.92071533203125	48.5416618774441	-5.24658203125E-07	0.92193603515625	2	848	1.58412507362664E-05	-4.64435961097479E-06
0.918731689453125	48.561497877394	-5.29571533203125E-07	0.92041015625	2	849	1.58412507362664E-05	-4.64435961097479E-06
0.916748046875	48.5813338773439	-5.3326416015625E-07	0.91796875	2	850	1.58412507362664E-05	-4.64435961097479E-06
0.914764404296875	48.6011698772938	-5.37994384765625E-07	0.91644287109375	2	851	1.58412507362664E-05	-4.64435961097479E-06
0.91278076171875	48.6210058772438	-5.42327880859375E-07	0.914306640625	2	852	1.58412507362664E-05	-4.64435961097479E-06
0.910797119140625	48.6408418771937	-5.46661376953125E-07	0.9124755859375	2	853	1.58412507362664E-05	-4.64435961097479E-06
0.9088134765625	48.6606778771436	-5.51422119140625E-07	0.91033935546875	2	854	1.58412507362664E-05	-4.64435961097479E-06
0.906829833984375	48.6805138770935	-5.55938720703125E-07	0.908203125	2	855	1.58412507362664E-05	-4.64435961097479E-06
0.90484619140625	48.7003498770434	-5.6072998046875E-07	0.90576171875	2	856	1.58412507362664E-05	-4.64435961097479E-06
0.902862548828125	48.7201858769934	-5.65582275390625E-07	0.9039306640625	2	857	1.58412507362664E-05	-4.64435961097479E-06
0.90087890625	48.7400218769433	-5.70465087890625E-07	0.902099609375	2	858	1.58412507362664E-05	-4.64435961097479E-06
0.898895263671875	48.7598578768932	-5.75469970703125E-07	0.9002685546875	2	859	1.58412507362664E-05	-4.64435961097479E-06
0.89691162109375	48.7796938768431	-5.8074951171875E-07	0.8984375	2	860	1.58412507362664E-05	-4.64435961097479E-06
0.894927978515625	48.799529876793	-5.859375E-07	0.89691162109375	2	861	1.58412507362664E-05	-4.64435961097479E-06
0.8929443359375	48.8193658767429	-5.91400146484375E-07	0.8941650390625	2	862	1.58412507362664E-05	-4.64435961097479E-06
0.890960693359375	48.8392018766929	-5.9698486328125E-07	0.89263916015625	2	863	1.58412507362664E-05	-4.64435961097479E-06
0.88897705078125	48.8590378766428	-6.02386474609375E-07	0.8905029296875	2	864	1.58412507362664E-05	-4.64435961097479E-06
0.886993408203125	48.8788738765927	-6.0791015625E-07	0.8880615234375	2	865	1.58412507362664E-05	-4.64435961097479E-06
0.885009765625	48.8987098765426	-6.1431884765625E-07	0.8868408203125	2	866	1.58412507362664E-05	-4.64435961097479E-06
0.883026123046875	48.9185458764925	-6.2042236328125E-07	0.88409423828125	2	867	1.58412507362664E-05	-4.64435961097479E-06
0.88104248046875	48.9383818764425	-6.268310546875E-07	0.88226318359375	2	868	1.58412507362664E-05	-4.64435961097479E-06
0.879058837890625	48.9582178763924	-6.341552734375E-07	0.88043212890625	2	869	1.58412507362664E-05	-4.64435961097479E-06
0.8770751953125	48.9780538763423	-6.40869140625E-07	0.87799072265625	2	870	1.58412507362664E-05	-4.64435961097479E-06
0.875091552734375	48.9978898762922	-6.4788818359375E-07	0.8758544921875	2	871	1.58412507362664E-05	-4.64435961097479E-06
0.87310791015625	49.0177258762421	-6.5521240234375E-07	0.87371826171875	2	872	1.58412507362664E-05	-4.64435961097479E-06
0.871124267578125	49.0375618761921	-6.6375732421875E-07	0.87188720703125	2	873	1.58412507362664E-05	-4.64435961097479E-06
0.869140625	49.057397876142	-6.7169189453125E-07	0.87005615234375	2	874	1.58412507362664E-05	-4.64435961097479E-06
0.867156982421875	49.0772338760919	-6.793212890625E-07	0.8685302734375	2	875	1.58412507362664E-05	-4.64435961097479E-06
0.86517333984375	49.0970698760418	-6.8817138671875E-07	0.86639404296875	2	876	1.58412507362664E-05	-4.64435961097479E-06
0.863189697265625	49.1169058759917	-6.9671630859375E-07	0.8642578125	2	877	1.58412507362664E-05	-4.64435961097479E-06
0.8612060546875	49.1367418759417	-7.061767578125E-07	0.8624267578125	2	878	1.58412507362664E-05	-4.64435961097479E-06
0.859222412109375	49.1565778758916	-7.1563720703125E-07	0.86090087890625	2	879	1.58412507362664E-05	-4.64435961097479E-06
0.85723876953125	49.1764138758415	-7.2509765625E-07	0.858154296875	2	880	1.58412507362664E-05	-4.64435961097479E-06
0.855255126953125	49.1962498757914	-7.3486328125E-07	0.85601806640625	2	881	1.58412507362664E-05	-4.64435961097479E-06
0.853271484375	49.2160858757413	-7.452392578125E-07	0.8551025390625	2	882	1.58412507362664E-05	-4.64435961097479E-06
0.851287841796875	49.2359218756912	-7.5592041015625E-07	0.8526611328125	2	883	1.58412507362664E-05	-4.64435961097479E-06
0.84930419921875	49.2557578756412	-7.666015625E-07	0.850830078125	2	884	1.58412507362664E-05	-4.64435961097479E-06
0.847320556640625	49.2755938755911	-7.781982421875E-07	0.84930419921875	2	885	1.58412507362664E-05	-4.64435961097479E-06
0.8453369140625	49.295429875541	-7.89794921875E-07	0.84686279296875	2	886	1.58412507362664E-05	-4.64435961097479E-06
0.843353271484375	49.3152658754909	-8.02001953125E-07	0.84442138671875	2	887	1.58412507362664E-05	-4.64435961097479E-06
0.84136962890625	49.3351018754408	-8.1390380859375E-07	0.84259033203125	2	888	1.58412507362664E-05	-4.64435961097479E-06
0.839385986328125	49.3549378753908	-8.2672119140625E-07	0.8404541015625	2	889	1.58412507362664E-05	-4.64435961097479E-06
0.83740234375	49.3747738753407	-8.3953857421875E-07	0.83892822265625	2	890	1.58412507362664E-05	-4.64435961097479E-06
0.835418701171875	49.3946098752906	-8.526611328125E-07	0.83648681640625	2	891	1.58412507362664E-05	-4.64435961097479E-06
0.83343505859375	49.4144458752405	-8.6639404296875E-07	0.8355712890625	2	892	1.58412507362664E-05	-4.64435961097479E-06
0.831451416015625	49.4342818751904	-8.7982177734375E-07	0.8331298828125	2	893	1.58412507362664E-05	-4.64435961097479E-06
0.8294677734375	49.4541178751404	-8.9447021484375E-07	0.83038330078125	2	894	1.58412507362664E-05	-4.64435961097479E-06
0.827484130859375	49.4739538750903	-9.08203125E-07	0.828857421875	2	895	1.58412507362664E-05	-4.64435961097479E-06
0.82550048828125	49.4937898750402	-9.228515625E-07	0.8270263671875	2	896	1.58412507362664E-05	-4.64435961097479E-06
0.823516845703125	49.5136258749901	-9.3719482421875E-07	0.82489013671875	2	897	1.58412507362664E-05	-4.64435961097479E-06
0.821533203125	49.53346187494	-9.5245361328125E-07	0.8221435546875	2	898	1.58412507362664E-05	-4.64435961097479E-06
0.819549560546875	49.5532978748899	-9.674072265625E-07	0.8203125	2	899	1.58412507362664E-05	-4.64435961097479E-06
0.81756591796875	49.5731338748399	-9.8236083984375E-07	0.8184814453125	2	900	1.58412507362664E-05	-4.64435961097479E-06
0.815582275390625	49.5929698747898	-9.979248046875E-07	0.81695556640625	2	901	1.58412507362664E-05	-4.64435961097479E-06
0.8135986328125	49.6128058747397	-1.01348876953125E-06	0.814208984375	2	902	1.58412507362664E-05	-4.64435961097479E-06
0.811614990234375	49.6326418746896	-1.029052734375E-06	0.8123779296875	2	903	1.58412507362664E-05	-4.64435961097479E-06
0.80963134765625	49.6524778746395	-1.0443115234375E-06	0.8111572265625	2	904	1.58412507362664E-05	-4.64435961097479E-06
0.807647705078125	49.6723138745895	-1.06048583984375E-06	0.80841064453125	2	905	1.58412507362664E-05	-4.64435961097479E-06
0.8056640625	49.6921498745394	-1.075439453125E-06	0.80657958984375	2	906	1.58412507362664E-05	-4.64435961097479E-06
0.803680419921875	49.7119858744893	-1.09039306640625E-06	0.8050537109375	2	907	1.58412507362664E-05	-4.64435961097479E-06
0.80169677734375	49.7318218744392	-1.10626220703125E-06	0.80322265625	2	908	1.58412507362664E-05	-4.64435961097479E-06
0.799713134765625	49.7516578743891	-1.12091064453125E-06	0.80047607421875	2	909	1.58412507362664E-05	-4.64435961097479E-06
0.7977294921875	49.7714938743391	-1.1358642578125E-06	0.79864501953125	2	910	1.58412507362664E-05	-4.64435961097479E-06
0.795745849609375	49.791329874289	-1.15020751953125E-06	0.79742431640625	2	911	1.58412507362664E-05	-4.64435961097479E-06
0.79376220703125	49.8111658742389	-1.16424560546875E-06	0.79559326171875	2	912	1.58412507362664E-05	-4.64435961097479E-06
0.791778564453125	49.8310018741888	-1.1785888671875E-06	0.7928466796875	2	913	1.58412507362664E-05	-4.64435961097479E-06
0.789794921875	49.8508378741387	-1.19140625E-06	0.79132080078125	2	914	1.58412507362664E-05	-4.64435961097479E-06
0.787811279296875	49.8706738740887	-1.204833984375E-06	0.78887939453125	2	915	1.58412507362664E-05	-4.64435961097479E-06
0.78582763671875	49.8905098740386	-1.21734619140625E-06	0.7867431640625	2	916	1.58412507362664E-05	-4.64435961097479E-06
0.783843994140625	49.9103458739885	-1.229248046875E-06	0.784912109375	2	917	1.58412507362664E-05	-4.64435961097479E-06
0.7818603515625	49.9301818739384	-1.23992919921875E-06	0.78277587890625	2	918	1.58412507362664E-05	-4.64435961097479E-06
0.779876708984375	49.9500178738883	-1.251220703125E-06	0.78125	2	919	1.58412507362664E-05	-4.64435961097479E-06
0.77789306640625	49.9698538738382	-1.26068115234375E-06	0.77911376953125	2	920	1.58412507362664E-05	-4.64435961097479E-06
0.775909423828125	49.9896898737882	-1.27044677734375E-06	0.777587890625	2	921	1.58412507362664E-05	-4.64435961097479E-06
0.77392578125	50.0095258737381	-1.279296875E-06	0.77545166015625	2	922	1.58412507362664E-05	-4.64435961097479E-06
0.771942138671875	50.029361873688	-1.28692626953125E-06	0.77362060546875	2	923	1.58412507362664E-05	-4.64435961097479E-06
0.76995849609375	50.0491978736379	-1.29425048828125E-06	0.77117919921875	2	924	1.58412507362664E-05	-4.64435961097479E-06
0.767974853515625	50.0690338735878	-1.3006591796875E-06	0.76934814453125	2	925	1.58412507362664E-05	-4.64435961097479E-06
0.7659912109375	50.0888698735378	-1.3067626953125E-06	0.767822265625	2	926	1.58412507362664E-05	-4.64435961097479E-06
0.764007568359375	50.1087058734877	-1.31134033203125E-06	0.76507568359375	2	927	1.58412507362664E-05	-4.64435961097479E-06
0.76202392578125	50.1285418734376	-1.31591796875E-06	0.76385498046875	2	928	1.58412507362664E-05	-4.64435961097479E-06
0.760040283203125	50.1483778733875	-1.31927490234375E-06	0.76171875	2	929	1.58412507362664E-05	-4.64435961097479E-06
0.758056640625	50.1682138733374	-1.32232666015625E-06	0.75958251953125	2	930	1.58412507362664E-05	-4.64435961097479E-06
0.756072998046875	50.1880498732874	-1.324462890625E-06	0.75775146484375	2	931	1.58412507362664E-05	-4.64435961097479E-06
0.75408935546875	50.2078858732373	-1.32568359375E-06	0.75592041015625	2	932	1.58412507362664E-05	-4.64435961097479E-06
0.752105712890625	50.2277218731872	-1.3262939453125E-06	0.7537841796875	2	933	1.58412507362664E-05	-4.64435961097479E-06
0.7501220703125	50.2475578731371	-1.3262939453125E-06	0.75164794921875	2	934	1.58412507362664E-05	-4.64435961097479E-06
0.748138427734375	50.267393873087	-1.32598876953125E-06	0.749176025390625	2	935	1.58412507362664E-05	-4.64435961097479E-06
0.74615478515625	50.2872298730369	-1.32537841796875E-06	0.74725341796875	2	936	1.58412507362664E-05	-4.64435961097479E-06
0.744171142578125	50.3070658729869	-1.32293701171875E-06	0.745330810546875	2	937	1.58412507362664E-05	-4.64435961097479E-06
0.7421875	50.3269018729368	-1.32080078125E-06	0.743377685546875	2	938	1.58412507362664E-05	-4.64435961097479E-06
0.740203857421875	50.3467378728867	-1.318359375E-06	0.74139404296875	2	939	1.58412507362664E-05	-4.64435961097479E-06
0.73822021484375	50.3665738728366	-1.314697265625E-06	0.739349365234375	2	940	1.58412507362664E-05	-4.64435961097479E-06
0.736236572265625	50.3864098727865	-1.31134033203125E-06	0.737457275390625	2	941	1.58412507362664E-05	-4.64435961097479E-06
0.7342529296875	50.4062458727365	-1.307373046875E-06	0.735382080078125	2	942	1.58412507362664E-05	-4.64435961097479E-06
0.732269287109375	50.4260818726864	-1.3031005859375E-06	0.733489990234375	2	943	1.58412507362664E-05	-4.64435961097479E-06
0.73028564453125	50.4459178726363	-1.29791259765625E-06	0.731475830078125	2	944	1.58412507362664E-05	-4.64435961097479E-06
0.728302001953125	50.4657538725862	-1.29364013671875E-06	0.72955322265625	2	945	1.58412507362664E-05	-4.64435961097479E-06
0.726318359375	50.4855898725361	-1.28814697265625E-06	0.727447509765625	2	946	1.58412507362664E-05	-4.64435961097479E-06
0.724334716796875	50.5054258724861	-1.2835693359375E-06	0.72552490234375	2	947	1.58412507362664E-05	-4.64435961097479E-06
0.72235107421875	50.525261872436	-1.2774658203125E-06	0.72357177734375	2	948	1.58412507362664E-05	-4.64435961097479E-06
0.720367431640625	50.5450978723859	-1.27197265625E-06	0.721588134765625	2	949	1.58412507362664E-05	-4.64435961097479E-06
0.7183837890625	50.5649338723358	-1.265869140625E-06	0.719573974609375	2	950	1.58412507362664E-05	-4.64435961097479E-06
0.716400146484375	50.5847698722857	-1.2603759765625E-06	0.7176513671875	2	951	1.58412507362664E-05	-4.64435961097479E-06
0.71441650390625	50.6046058722357	-1.2542724609375E-06	0.715606689453125	2	952	1.58412507362664E-05	-4.64435961097479E-06
0.712432861328125	50.6244418721856	-1.24847412109375E-06	0.71368408203125	2	953	1.58412507362664E-05	-4.64435961097479E-06
0.71044921875	50.6442778721355	-1.24237060546875E-06	0.711578369140625	2	954	1.58412507362664E-05	-4.64435961097479E-06
0.708465576171875	50.6641138720854	-1.236572265625E-06	0.7095947265625	2	955	1.58412507362664E-05	-4.64435961097479E-06
0.70648193359375	50.6839498720353	-1.23046875E-06	0.707672119140625	2	956	1.58412507362664E-05	-4.64435961097479E-06
0.704498291015625	50.7037858719852	-1.22467041015625E-06	0.705596923828125	2	957	1.58412507362664E-05	-4.64435961097479E-06
0.7025146484375	50.7236218719352	-1.21826171875E-06	0.70367431640625	2	958	1.58412507362664E-05	-4.64435961097479E-06
0.700531005859375	50.7434578718851	-1.212158203125E-06	0.70166015625	2	959	1.58412507362664E-05	-4.64435961097479E-06
0.69854736328125	50.763293871835	-1.2060546875E-06	0.699737548828125	2	960	1.58412507362664E-05	-4.64435961097479E-06
0.696563720703125	50.7831298717849	-1.199951171875E-06	0.69781494140625	2	961	1.58412507362664E-05	-4.64435961097479E-06
0.694580078125	50.8029658717348	-1.1944580078125E-06	0.695770263671875	2	962	1.58412507362664E-05	-4.64435961097479E-06
0.692596435546875	50.8228018716848	-1.18804931640625E-06	0.693817138671875	2	963	1.58412507362664E-05	-4.64435961097479E-06
0.69061279296875	50.8426378716347	-1.18194580078125E-06	0.69183349609375	2	964	1.58412507362664E-05	-4.64435961097479E-06
0.688629150390625	50.8624738715846	-1.17706298828125E-06	0.689971923828125	2	965	1.58412507362664E-05	-4.64435961097479E-06
0.6866455078125	50.8823098715345	-1.17156982421875E-06	0.68780517578125	2	966	1.58412507362664E-05	-4.64435961097479E-06
0.684661865234375	50.9021458714844	-1.165771484375E-06	0.686004638671875	2	967	1.58412507362664E-05	-4.64435961097479E-06
0.68267822265625	50.9219818714344	-1.1602783203125E-06	0.68389892578125	2	968	1.58412507362664E-05	-4.64435961097479E-06
0.680694580078125	50.9418178713843	-1.15478515625E-06	0.68194580078125	2	969	1.58412507362664E-05	-4.64435961097479E-06
0.6787109375	50.9616538713342	-1.14959716796875E-06	0.680023193359375	2	970	1.58412507362664E-05	-4.64435961097479E-06
0.676727294921875	50.9814898712841	-1.143798828125E-06	0.677978515625	2	971	1.58412507362664E-05	-4.64435961097479E-06
0.67474365234375	51.001325871234	-1.1383056640625E-06	0.676025390625	2	972	1.58412507362664E-05	-4.64435961097479E-06
0.672760009765625	51.0211618711839	-1.1334228515625E-06	0.67401123046875	2	973	1.58412507362664E-05	-4.64435961097479E-06
0.6707763671875	51.0409978711339	-1.12823486328125E-06	0.671966552734375	2	974	1.58412507362664E-05	-4.64435961097479E-06
0.668792724609375	51.0608338710838	-1.12335205078125E-06	0.670074462890625	2	975	1.58412507362664E-05	-4.64435961097479E-06
0.66680908203125	51.0806698710337	-1.1181640625E-06	0.667999267578125	2	976	1.58412507362664E-05	-4.64435961097479E-06
0.664825439453125	51.1005058709836	-1.11297607421875E-06	0.66607666015625	2	977	1.58412507362664E-05	-4.64435961097479E-06
0.662841796875	51.1203418709335	-1.10809326171875E-06	0.6640625	2	978	1.58412507362664E-05	-4.64435961097479E-06
0.660858154296875	51.1401778708835	-1.10321044921875E-06	0.662078857421875	2	979	1.58412507362664E-05	-4.64435961097479E-06
0.65887451171875	51.1600138708334	-1.09832763671875E-06	0.66015625	2	980	1.58412507362664E-05	-4.64435961097479E-06
0.656890869140625	51.1798498707833	-1.09344482421875E-06	0.6580810546875	2	981	1.58412507362664E-05	-4.64435961097479E-06
0.6549072265625	51.1996858707332	-1.0888671875E-06	0.65618896484375	2	982	1.58412507362664E-05	-4.64435961097479E-06
0.652923583984375	51.2195218706831	-1.0845947265625E-06	0.6541748046875	2	983	1.58412507362664E-05	-4.64435961097479E-06
0.65093994140625	51.2393578706331	-1.08001708984375E-06	0.6522216796875	2	984	1.58412507362664E-05	-4.64435961097479E-06
0.648956298828125	51.259193870583	-1.07513427734375E-06	0.650238037109375	2	985	1.58412507362664E-05	-4.64435961097479E-06
0.64697265625	51.2790298705329	-1.07086181640625E-06	0.648162841796875	2	986	1.58412507362664E-05	-4.64435961097479E-06
0.644989013671875	51.2988658704828	-1.06658935546875E-06	0.64617919921875	2	987	1.58412507362664E-05	-4.64435961097479E-06
0.64300537109375	51.3187018704327	-1.06170654296875E-06	0.644287109375	2	988	1.58412507362664E-05	-4.64435961097479E-06
0.641021728515625	51.3385378703827	-1.05743408203125E-06	0.64239501953125	2	989	1.58412507362664E-05	-4.64435961097479E-06
0.6390380859375	51.3583738703326	-1.05255126953125E-06	0.640350341796875	2	990	1.58412507362664E-05	-4.64435961097479E-06
0.637054443359375	51.3782098702825	-1.04888916015625E-06	0.63836669921875	2	991	1.58412507362664E-05	-4.64435961097479E-06
0.63507080078125	51.3980458702324	-1.04522705078125E-06	0.636260986328125	2	992	1.58412507362664E-05	-4.64435961097479E-06
0.633087158203125	51.4178818701823	-1.04095458984375E-06	0.634368896484375	2	993	1.58412507362664E-05	-4.64435961097479E-06
0.631103515625	51.4377178701322	-1.0369873046875E-06	0.632415771484375	2	994	1.58412507362664E-05	-4.64435961097479E-06
0.629119873046875	51.4575538700822	-1.03302001953125E-06	0.630462646484375	2	995	1.58412507362664E-05	-4.64435961097479E-06
0.62713623046875	51.4773898700321	-1.02874755859375E-06	0.628326416015625	2	996	1.58412507362664E-05	-4.64435961097479E-06
0.625152587890625	51.497225869982	-1.0247802734375E-06	0.6263427734375	2	997	1.58412507362664E-05	-4.64435961097479E-06
0.6231689453125	51.5170618699319	-1.02142333984375E-06	0.624359130859375	2	998	1.58412507362664E-05	-4.64435961097479E-06
0.621185302734375	51.5368978698818	-1.016845703125E-06	0.6224365234375	2	999	1.58412507362664E-05	-4.64435961097479E-06
0.61920166015625	51.5567338698318	-1.01318359375E-06	0.620361328125	2	1000	1.58412507362664E-05	-4.64435961097479E-06
0.617218017578125	51.5765698697817	-1.00982666015625E-06	0.618499755859375	2	1001	1.58412507362664E-05	-4.64435961097479E-06
0.615234375	51.5964058697316	-1.00616455078125E-06	0.616363525390625	2	1002	1.58412507362664E-05	-4.64435961097479E-06
0.613250732421875	51.6162418696815	-1.00250244140625E-06	0.614501953125	2	1003	1.58412507362664E-05	-4.64435961097479E-06
0.61126708984375	51.6360778696314	-9.9945068359375E-07	0.612579345703125	2	1004	1.58412507362664E-05	-4.64435961097479E-06
0.609283447265625	51.6559138695814	-9.9578857421875E-07	0.610504150390625	2	1005	1.58412507362664E-05	-4.64435961097479E-06
0.6072998046875	51.6757498695313	-9.92431640625E-07	0.608551025390625	2	1006	1.58412507362664E-05	-4.64435961097479E-06
0.605316162109375	51.6955858694812	-9.8907470703125E-07	0.606475830078125	2	1007	1.58412507362664E-05	-4.64435961097479E-06
0.60333251953125	51.7154218694311	-9.8602294921875E-07	0.604583740234375	2	1008	1.58412507362664E-05	-4.64435961097479E-06
0.601348876953125	51.735257869381	-9.820556640625E-07	0.602630615234375	2	1009	1.58412507362664E-05	-4.64435961097479E-06
0.599365234375	51.7550938693309	-9.7900390625E-07	0.600677490234375	2	1010	1.58412507362664E-05	-4.64435961097479E-06
0.601348876953125	51.7749298692809	-9.5489501953125E-07	0.602691650390625	2	1011	1.58412507362664E-05	-4.64435961097479E-06
0.60333251953125	51.7947658692308	-9.3536376953125E-07	0.604522705078125	2	1012	1.58412507362664E-05	-4.64435961097479E-06
0.605316162109375	51.8146018691807	-9.173583984375E-07	0.606536865234375	2	1013	1.58412507362664E-05	-4.64435961097479E-06
0.6072998046875	51.8344378691306	-9.0087890625E-07	0.608612060546875	2	1014	1.58412507362664E-05	-4.64435961097479E-06
0.609283447265625	51.8542738690805	-8.8531494140625E-07	0.610565185546875	2	1015	1.58412507362664E-05	-4.64435961097479E-06
0.61126708984375	51.8741098690305	-8.7066650390625E-07	0.61248779296875	2	1016	1.58412507362664E-05	-4.64435961097479E-06
0.613250732421875	51.8939458689804	-8.563232421875E-07	0.614532470703125	2	1017	1.58412507362664E-05	-4.64435961097479E-06
0.615234375	51.9137818689303	-8.428955078125E-07	0.61651611328125	2	1018	1.58412507362664E-05	-4.64435961097479E-06
0.617218017578125	51.9336178688802	-8.3038330078125E-07	0.618438720703125	2	1019	1.58412507362664E-05	-4.64435961097479E-06
0.61920166015625	51.9534538688301	-8.1787109375E-07	0.6204833984375	2	1020	1.58412507362664E-05	-4.64435961097479E-06
0.621185302734375	51.9732898687801	-8.062744140625E-07	0.62237548828125	2	1021	1.58412507362664E-05	-4.64435961097479E-06
0.6231689453125	51.99312586873	-7.94677734375E-07	0.624359130859375	2	1022	1.58412507362664E-05	-4.64435961097479E-06
0.625152587890625	52.0129618686799	-7.830810546875E-07	0.626373291015625	2	1023	1.58412507362664E-05	-4.64435961097479E-06
0.62713623046875	52.0327978686298	-7.720947265625E-07	0.628387451171875	2	1024	1.58412507362664E-05	-4.64435961097479E-06
0.629119873046875	52.0526338685797	-7.611083984375E-07	0.63031005859375	2	1025	1.58412507362664E-05	-4.64435961097479E-06
0.631103515625	52.0724698685297	-7.501220703125E-07	0.63226318359375	2	1026	1.58412507362664E-05	-4.64435961097479E-06
0.633087158203125	52.0923058684796	-7.3974609375E-07	0.634368896484375	2	1027	1.58412507362664E-05	-4.64435961097479E-06
0.63507080078125	52.1121418684295	-7.293701171875E-07	0.636383056640625	2	1028	1.58412507362664E-05	-4.64435961097479E-06
0.637054443359375	52.1319778683794	-7.196044921875E-07	0.638397216796875	2	1029	1.58412507362664E-05	-4.64435961097479E-06
0.6390380859375	52.1518138683293	-7.0953369140625E-07	0.640289306640625	2	1030	1.58412507362664E-05	-4.64435961097479E-06
0.641021728515625	52.1716498682792	-7.0068359375E-07	0.642303466796875	2	1031	1.58412507362664E-05	-4.64435961097479E-06
0.64300537109375	52.1914858682292	-6.9061279296875E-07	0.644256591796875	2	1032	1.58412507362664E-05	-4.64435961097479E-06
0.644989013671875	52.2113218681791	-6.8145751953125E-07	0.646240234375	2	1033	1.58412507362664E-05	-4.64435961097479E-06
0.64697265625	52.231157868129	-6.7169189453125E-07	0.648193359375	2	1034	1.58412507362664E-05	-4.64435961097479E-06
0.648956298828125	52.2509938680789	-6.62841796875E-07	0.6502685546875	2	1035	1.58412507362664E-05	-4.64435961097479E-06
0.65093994140625	52.2708298680288	-6.536865234375E-07	0.65216064453125	2	1036	1.58412507362664E-05	-4.64435961097479E-06
0.652923583984375	52.2906658679788	-6.4483642578125E-07	0.6541748046875	2	1037	1.58412507362664E-05	-4.64435961097479E-06
0.6549072265625	52.3105018679287	-6.3629150390625E-07	0.656158447265625	2	1038	1.58412507362664E-05	-4.64435961097479E-06
0.656890869140625	52.3303378678786	-6.2774658203125E-07	0.6580810546875	2	1039	1.58412507362664E-05	-4.64435961097479E-06
0.65887451171875	52.3501738678285	-6.1920166015625E-07	0.660064697265625	2	1040	1.58412507362664E-05	-4.64435961097479E-06
0.660858154296875	52.3700098677784	-6.109619140625E-07	0.66204833984375	2	1041	1.58412507362664E-05	-4.64435961097479E-06
0.662841796875	52.3898458677284	-6.0272216796875E-07	0.66412353515625	2	1042	1.58412507362664E-05	-4.64435961097479E-06
0.664825439453125	52.4096818676783	-5.94482421875E-07	0.666107177734375	2	1043	1.58412507362664E-05	-4.64435961097479E-06
0.66680908203125	52.4295178676282	-5.859375E-07	0.668121337890625	2	1044	1.58412507362664E-05	-4.64435961097479E-06
0.668792724609375	52.4493538675781	-5.780029296875E-07	0.670013427734375	2	1045	1.58412507362664E-05	-4.64435961097479E-06
0.6707763671875	52.469189867528	-5.6976318359375E-07	0.672088623046875	2	1046	1.58412507362664E-05	-4.64435961097479E-06
0.672760009765625	52.4890258674779	-5.621337890625E-07	0.6739501953125	2	1047	1.58412507362664E-05	-4.64435961097479E-06
0.67474365234375	52.5088618674279	-5.5450439453125E-07	0.6759033203125	2	1048	1.58412507362664E-05	-4.64435961097479E-06
0.676727294921875	52.5286978673778	-5.4656982421875E-07	0.6778564453125	2	1049	1.58412507362664E-05	-4.64435961097479E-06
0.6787109375	52.5485338673277	-5.389404296875E-07	0.679931640625	2	1050	1.58412507362664E-05	-4.64435961097479E-06
0.680694580078125	52.5683698672776	-5.316162109375E-07	0.68194580078125	2	1051	1.58412507362664E-05	-4.64435961097479E-06
0.68267822265625	52.5882058672275	-5.2459716796875E-07	0.683990478515625	2	1052	1.58412507362664E-05	-4.64435961097479E-06
0.684661865234375	52.6080418671775	-5.16357421875E-07	0.685882568359375	2	1053	1.58412507362664E-05	-4.64435961097479E-06
0.6866455078125	52.6278778671274	-5.09033203125E-07	0.68792724609375	2	1054	1.58412507362664E-05	-4.64435961097479E-06
0.688629150390625	52.6477138670773	-5.0140380859375E-07	0.689788818359375	2	1055	1.58412507362664E-05	-4.64435961097479E-06
0.69061279296875	52.6675498670272	-4.937744140625E-07	0.691925048828125	2	1056	1.58412507362664E-05	-4.64435961097479E-06
0.692596435546875	52.6873858669771	-4.87060546875E-07	0.693817138671875	2	1057	1.58412507362664E-05	-4.64435961097479E-06
0.694580078125	52.7072218669271	-4.8004150390625E-07	0.695892333984375	2	1058	1.58412507362664E-05	-4.64435961097479E-06
0.696563720703125	52.727057866877	-4.7271728515625E-07	0.697845458984375	2	1059	1.58412507362664E-05	-4.64435961097479E-06
0.69854736328125	52.7468938668269	-4.6539306640625E-07	0.69976806640625	2	1060	1.58412507362664E-05	-4.64435961097479E-06
0.700531005859375	52.7667298667768	-4.591064453125E-07	0.701751708984375	2	1061	1.58412507362664E-05	-4.64435961097479E-06
0.7025146484375	52.7865658667267	-4.5220947265625E-07	0.703643798828125	2	1062	1.58412507362664E-05	-4.64435961097479E-06
0.704498291015625	52.8064018666767	-4.44976806640625E-07	0.705657958984375	2	1063	1.58412507362664E-05	-4.64435961097479E-06
0.70648193359375	52.8262378666266	-4.37713623046875E-07	0.707550048828125	2	1064	1.58412507362664E-05	-4.64435961097479E-06
0.708465576171875	52.8460738665765	-4.306640625E-07	0.709625244140625	2	1065	1.58412507362664E-05	-4.64435961097479E-06
0.71044921875	52.8659098665264	-4.2364501953125E-07	0.711578369140625	2	1066	1.58412507362664E-05	-4.64435961097479E-06
0.712432861328125	52.8857458664763	-4.16748046875E-07	0.71368408203125	2	1067	1.58412507362664E-05	-4.64435961097479E-06
0.71441650390625	52.9055818664262	-4.09881591796875E-07	0.715606689453125	2	1068	1.58412507362664E-05	-4.64435961097479E-06
0.716400146484375	52.9254178663762	-4.02984619140625E-07	0.717559814453125	2	1069	1.58412507362664E-05	-4.64435961097479E-06
0.7183837890625	52.9452538663261	-3.96270751953125E-07	0.71954345703125	2	1070	1.58412507362664E-05	-4.64435961097479E-06
0.720367431640625	52.965089866276	-3.8934326171875E-07	0.7215576171875	2	1071	1.58412507362664E-05	-4.64435961097479E-06
0.72235107421875	52.9849258662259	-3.822021484375E-07	0.723541259765625	2	1072	1.58412507362664E-05	-4.64435961097479E-06
0.724334716796875	53.0047618661758	-3.74969482421875E-07	0.72552490234375	2	1073	1.58412507362664E-05	-4.64435961097479E-06
0.726318359375	53.0245978661258	-3.680419921875E-07	0.72747802734375	2	1074	1.58412507362664E-05	-4.64435961097479E-06
0.728302001953125	53.0444338660757	-3.612060546875E-07	0.729461669921875	2	1075	1.58412507362664E-05	-4.64435961097479E-06
0.73028564453125	53.0642698660256	-3.54278564453125E-07	0.7314453125	2	1076	1.58412507362664E-05	-4.64435961097479E-06
0.732269287109375	53.0841058659755	-3.4722900390625E-07	0.73345947265625	2	1077	1.58412507362664E-05	-4.64435961097479E-06
0.7342529296875	53.1039418659254	-3.4027099609375E-07	0.73541259765625	2	1078	1.58412507362664E-05	-4.64435961097479E-06
0.736236572265625	53.1237778658754	-3.33038330078125E-07	0.737396240234375	2	1079	1.58412507362664E-05	-4.64435961097479E-06
0.73822021484375	53.1436138658253	-3.26263427734375E-07	0.7393798828125	2	1080	1.58412507362664E-05	-4.64435961097479E-06
0.740203857421875	53.1634498657752	-3.1884765625E-07	0.7413330078125	2	1081	1.58412507362664E-05	-4.64435961097479E-06
0.7421875	53.1832858657251	-3.12042236328125E-07	0.74334716796875	2	1082	1.58412507362664E-05	-4.64435961097479E-06
0.744171142578125	53.203121865675	-3.04290771484375E-07	0.745330810546875	2	1083	1.58412507362664E-05	-4.64435961097479E-06
0.74615478515625	53.2229578656249	-2.97271728515625E-07	0.74725341796875	2	1084	1.58412507362664E-05	-4.64435961097479E-06
0.748138427734375	53.2427938655749	-2.900390625E-07	0.74932861328125	2	1085	1.58412507362664E-05	-4.64435961097479E-06
0.7501220703125	53.2626298655248	-2.82684326171875E-07	0.75225830078125	2	1086	1.58412507362664E-05	-4.64435961097479E-06
0.752105712890625	53.2824658654747	-2.755126953125E-07	0.753173828125	2	1087	1.58412507362664E-05	-4.64435961097479E-06
0.75408935546875	53.3023018654246	-2.68035888671875E-07	0.75531005859375	2	1088	1.58412507362664E-05	-4.64435961097479E-06
0.756072998046875	53.3221378653745	-2.607421875E-07	0.75714111328125	2	1089	1.58412507362664E-05	-4.64435961097479E-06
0.758056640625	53.3419738653245	-2.528076171875E-07	0.75958251953125	2	1090	1.58412507362664E-05	-4.64435961097479E-06
0.760040283203125	53.3618098652744	-2.45697021484375E-07	0.76171875	2	1091	1.58412507362664E-05	-4.64435961097479E-06
0.76202392578125	53.3816458652243	-2.37823486328125E-07	0.76385498046875	2	1092	1.58412507362664E-05	-4.64435961097479E-06
0.764007568359375	53.4014818651742	-2.2998046875E-07	0.76568603515625	2	1093	1.58412507362664E-05	-4.64435961097479E-06
0.7659912109375	53.4213178651241	-2.22137451171875E-07	0.7672119140625	2	1094	1.58412507362664E-05	-4.64435961097479E-06
0.767974853515625	53.4411538650741	-2.14630126953125E-07	0.76934814453125	2	1095	1.58412507362664E-05	-4.64435961097479E-06
0.76995849609375	53.460989865024	-2.06695556640625E-07	0.77117919921875	2	1096	1.58412507362664E-05	-4.64435961097479E-06
0.771942138671875	53.4808258649739	-1.9854736328125E-07	0.772705078125	2	1097	1.58412507362664E-05	-4.64435961097479E-06
0.77392578125	53.5006618649238	-1.9061279296875E-07	0.775146484375	2	1098	1.58412507362664E-05	-4.64435961097479E-06
0.775909423828125	53.5204978648737	-1.822509765625E-07	0.77728271484375	2	1099	1.58412507362664E-05	-4.64435961097479E-06
0.77789306640625	53.5403338648237	-1.74285888671875E-07	0.77911376953125	2	1100	1.58412507362664E-05	-4.64435961097479E-06
0.779876708984375	53.5601698647736	-1.65740966796875E-07	0.78155517578125	2	1101	1.58412507362664E-05	-4.64435961097479E-06
0.7818603515625	53.5800058647235	-1.57012939453125E-07	0.7830810546875	2	1102	1.58412507362664E-05	-4.64435961097479E-06
0.783843994140625	53.5998418646734	-1.4862060546875E-07	0.784912109375	2	1103	1.58412507362664E-05	-4.64435961097479E-06
0.78582763671875	53.6196778646233	-1.40228271484375E-07	0.78704833984375	2	1104	1.58412507362664E-05	-4.64435961097479E-06
0.787811279296875	53.6395138645732	-1.31195068359375E-07	0.7891845703125	2	1105	1.58412507362664E-05	-4.64435961097479E-06
0.789794921875	53.6593498645232	-1.22283935546875E-07	0.79071044921875	2	1106	1.58412507362664E-05	-4.64435961097479E-06
0.791778564453125	53.6791858644731	-1.13189697265625E-07	0.7928466796875	2	1107	1.58412507362664E-05	-4.64435961097479E-06
0.79376220703125	53.699021864423	-1.04217529296875E-07	0.79498291015625	2	1108	1.58412507362664E-05	-4.64435961097479E-06
0.795745849609375	53.7188578643729	-9.4818115234375E-08	0.79681396484375	2	1109	1.58412507362664E-05	-4.64435961097479E-06
0.7977294921875	53.7386938643228	-8.50830078125E-08	0.79864501953125	2	1110	1.58412507362664E-05	-4.64435961097479E-06
0.799713134765625	53.7585298642728	-7.5225830078125E-08	0.80108642578125	2	1111	1.58412507362664E-05	-4.64435961097479E-06
0.80169677734375	53.7783658642227	-6.5277099609375E-08	0.80291748046875	2	1112	1.58412507362664E-05	-4.64435961097479E-06
0.803680419921875	53.7982018641726	-5.511474609375E-08	0.8038330078125	2	1113	1.58412507362664E-05	-4.64435961097479E-06
0.8056640625	53.8180378641225	-4.49310302734375E-08	0.80718994140625	2	1114	1.58412507362664E-05	-4.64435961097479E-06
0.807647705078125	53.8378738640724	-3.4527587890625E-08	0.80902099609375	2	1115	1.58412507362664E-05	-4.64435961097479E-06
0.80963134765625	53.8577098640224	-2.4029541015625E-08	0.81085205078125	2	1116	1.58412507362664E-05	-4.64435961097479E-06
0.811614990234375	53.8775458639723	-1.28082275390625E-08	0.81298828125	2	1117	1.58412507362664E-05	-4.64435961097479E-06
0.8135986328125	53.8973818639222	-1.7791748046875E-09	0.81451416015625	2	1118	1.58412507362664E-05	-4.64435961097479E-06
0.815582275390625	53.9172178638721	9.661865234375E-09	0.81756591796875	2	1119	1.58412507362664E-05	-4.64435961097479E-06
0.81756591796875	53.937053863822	2.149658203125E-08	0.819091796875	2	1120	1.58412507362664E-05	-4.64435961097479E-06
0.819549560546875	53.9568898637719	3.32366943359375E-08	0.8203125	2	1121	1.58412507362664E-05	-4.64435961097479E-06
0.821533203125	53.9767258637219	4.50439453125E-08	0.82244873046875	2	1122	1.58412507362664E-05	-4.64435961097479E-06
0.823516845703125	53.9965618636718	5.7769775390625E-08	0.82489013671875	2	1123	1.58412507362664E-05	-4.64435961097479E-06
0.82550048828125	54.0163978636217	7.01904296875E-08	0.8270263671875	2	1124	1.58412507362664E-05	-4.64435961097479E-06
0.827484130859375	54.0362338635716	8.319091796875E-08	0.8282470703125	2	1125	1.58412507362664E-05	-4.64435961097479E-06
0.8294677734375	54.0560698635215	9.6466064453125E-08	0.83038330078125	2	1126	1.58412507362664E-05	-4.64435961097479E-06
0.831451416015625	54.0759058634715	1.0980224609375E-07	0.83282470703125	2	1127	1.58412507362664E-05	-4.64435961097479E-06
0.83343505859375	54.0957418634214	1.2359619140625E-07	0.83465576171875	2	1128	1.58412507362664E-05	-4.64435961097479E-06
0.835418701171875	54.1155778633713	1.37939453125E-07	0.83648681640625	2	1129	1.58412507362664E-05	-4.64435961097479E-06
0.83740234375	54.1354138633212	1.52099609375E-07	0.83892822265625	2	1130	1.58412507362664E-05	-4.64435961097479E-06
0.839385986328125	54.1552498632711	1.6656494140625E-07	0.841064453125	2	1131	1.58412507362664E-05	-4.64435961097479E-06
0.84136962890625	54.1750858632211	1.815185546875E-07	0.84320068359375	2	1132	1.58412507362664E-05	-4.64435961097479E-06
0.843353271484375	54.194921863171	1.9622802734375E-07	0.8447265625	2	1133	1.58412507362664E-05	-4.64435961097479E-06
0.8453369140625	54.2147578631209	2.1124267578125E-07	0.8465576171875	2	1134	1.58412507362664E-05	-4.64435961097479E-06
0.847320556640625	54.2345938630708	2.27020263671875E-07	0.8477783203125	2	1135	1.58412507362664E-05	-4.64435961097479E-06
0.84930419921875	54.2544298630207	2.421875E-07	0.85052490234375	2	1136	1.58412507362664E-05	-4.64435961097479E-06
0.851287841796875	54.2742658629707	2.5836181640625E-07	0.85235595703125	2	1137	1.58412507362664E-05	-4.64435961097479E-06
0.853271484375	54.2941018629206	2.74871826171875E-07	0.85418701171875	2	1138	1.58412507362664E-05	-4.64435961097479E-06
0.855255126953125	54.3139378628705	2.90924072265625E-07	0.85601806640625	2	1139	1.58412507362664E-05	-4.64435961097479E-06
0.85723876953125	54.3337738628204	3.0755615234375E-07	0.85845947265625	2	1140	1.58412507362664E-05	-4.64435961097479E-06
0.859222412109375	54.3536098627703	3.243408203125E-07	0.86029052734375	2	1141	1.58412507362664E-05	-4.64435961097479E-06
0.8612060546875	54.3734458627202	3.4088134765625E-07	0.86181640625	2	1142	1.58412507362664E-05	-4.64435961097479E-06
0.863189697265625	54.3932818626702	3.5821533203125E-07	0.86456298828125	2	1143	1.58412507362664E-05	-4.64435961097479E-06
0.86517333984375	54.4131178626201	3.75457763671875E-07	0.86639404296875	2	1144	1.58412507362664E-05	-4.64435961097479E-06
0.867156982421875	54.43295386257	3.9276123046875E-07	0.86883544921875	2	1145	1.58412507362664E-05	-4.64435961097479E-06
0.869140625	54.4527898625199	4.1058349609375E-07	0.870361328125	2	1146	1.58412507362664E-05	-4.64435961097479E-06
0.871124267578125	54.4726258624698	4.28375244140625E-07	0.8721923828125	2	1147	1.58412507362664E-05	-4.64435961097479E-06
0.87310791015625	54.4924618624198	4.468994140625E-07	0.8746337890625	2	1148	1.58412507362664E-05	-4.64435961097479E-06
0.875091552734375	54.5122978623697	4.649658203125E-07	0.87615966796875	2	1149	1.58412507362664E-05	-4.64435961097479E-06
0.8770751953125	54.5321338623196	4.83734130859375E-07	0.8782958984375	2	1150	1.58412507362664E-05	-4.64435961097479E-06
0.879058837890625	54.5519698622695	5.0238037109375E-07	0.880126953125	2	1151	1.58412507362664E-05	-4.64435961097479E-06
0.88104248046875	54.5718058622194	5.20965576171875E-07	0.8819580078125	2	1152	1.58412507362664E-05	-4.64435961097479E-06
0.883026123046875	54.5916418621694	5.40191650390625E-07	0.8843994140625	2	1153	1.58412507362664E-05	-4.64435961097479E-06
0.885009765625	54.6114778621193	5.5926513671875E-07	0.88653564453125	2	1154	1.58412507362664E-05	-4.64435961097479E-06
0.886993408203125	54.6313138620692	5.7879638671875E-07	0.88775634765625	2	1155	1.58412507362664E-05	-4.64435961097479E-06
0.88897705078125	54.6511498620191	5.98724365234375E-07	0.89080810546875	2	1156	1.58412507362664E-05	-4.64435961097479E-06
0.890960693359375	54.670985861969	6.18743896484375E-07	0.89263916015625	2	1157	1.58412507362664E-05	-4.64435961097479E-06
0.8929443359375	54.6908218619189	6.3995361328125E-07	0.8941650390625	2	1158	1.58412507362664E-05	-4.64435961097479E-06
0.894927978515625	54.7106578618689	6.597900390625E-07	0.89630126953125	2	1159	1.58412507362664E-05	-4.64435961097479E-06
0.89691162109375	54.7304938618188	6.805419921875E-07	0.8984375	2	1160	1.58412507362664E-05	-4.64435961097479E-06
0.898895263671875	54.7503298617687	7.0159912109375E-07	0.9002685546875	2	1161	1.58412507362664E-05	-4.64435961097479E-06
0.90087890625	54.7701658617186	7.2265625E-07	0.90240478515625	2	1162	1.58412507362664E-05	-4.64435961097479E-06
0.902862548828125	54.7900018616685	7.4432373046875E-07	0.904541015625	2	1163	1.58412507362664E-05	-4.64435961097479E-06
0.90484619140625	54.8098378616185	7.6568603515625E-07	0.90545654296875	2	1164	1.58412507362664E-05	-4.64435961097479E-06
0.906829833984375	54.8296738615684	7.8826904296875E-07	0.90789794921875	2	1165	1.58412507362664E-05	-4.64435961097479E-06
0.9088134765625	54.8495098615183	8.1085205078125E-07	0.91033935546875	2	1166	1.58412507362664E-05	-4.64435961097479E-06
0.910797119140625	54.8693458614682	8.33740234375E-07	0.911865234375	2	1167	1.58412507362664E-05	-4.64435961097479E-06
0.91278076171875	54.8891818614181	8.5693359375E-07	0.91339111328125	2	1168	1.58412507362664E-05	-4.64435961097479E-06
0.914764404296875	54.9090178613681	8.80126953125E-07	0.91522216796875	2	1169	1.58412507362664E-05	-4.64435961097479E-06
0.916748046875	54.928853861318	9.039306640625E-07	0.91766357421875	2	1170	1.58412507362664E-05	-4.64435961097479E-06
0.918731689453125	54.9486898612679	9.2864990234375E-07	0.92010498046875	2	1171	1.58412507362664E-05	-4.64435961097479E-06
0.92071533203125	54.9685258612178	9.521484375E-07	0.9228515625	2	1172	1.58412507362664E-05	-4.64435961097479E-06
0.922698974609375	54.9883618611677	9.7747802734375E-07	0.92376708984375	2	1173	1.58412507362664E-05	-4.64435961097479E-06
0.9246826171875	55.0081978611177	1.002197265625E-06	0.92620849609375	2	1174	1.58412507362664E-05	-4.64435961097479E-06
0.926666259765625	55.0280338610676	1.02752685546875E-06	0.92803955078125	2	1175	1.58412507362664E-05	-4.64435961097479E-06
0.92864990234375	55.0478698610175	1.05438232421875E-06	0.92987060546875	2	1176	1.58412507362664E-05	-4.64435961097479E-06
0.930633544921875	55.0677058609674	1.080322265625E-06	0.93170166015625	2	1177	1.58412507362664E-05	-4.64435961097479E-06
0.9326171875	55.0875418609173	1.10565185546875E-06	0.9332275390625	2	1178	1.58412507362664E-05	-4.64435961097479E-06
0.934600830078125	55.1073778608672	1.1322021484375E-06	0.93536376953125	2	1179	1.58412507362664E-05	-4.64435961097479E-06
0.93658447265625	55.1272138608172	1.158447265625E-06	0.93719482421875	2	1180	1.58412507362664E-05	-4.64435961097479E-06
0.938568115234375	55.1470498607671	1.18621826171875E-06	0.93963623046875	2	1181	1.58412507362664E-05	-4.64435961097479E-06
0.9405517578125	55.166885860717	1.2127685546875E-06	0.9417724609375	2	1182	1.58412507362664E-05	-4.64435961097479E-06
0.942535400390625	55.1867218606669	1.240234375E-06	0.943603515625	2	1183	1.58412507362664E-05	-4.64435961097479E-06
0.94451904296875	55.2065578606168	1.26739501953125E-06	0.94512939453125	2	1184	1.58412507362664E-05	-4.64435961097479E-06
0.946502685546875	55.2263938605668	1.295166015625E-06	0.94757080078125	2	1185	1.58412507362664E-05	-4.64435961097479E-06
0.948486328125	55.2462298605167	1.3226318359375E-06	0.94970703125	2	1186	1.58412507362664E-05	-4.64435961097479E-06
0.950469970703125	55.2660658604666	1.34979248046875E-06	0.95184326171875	2	1187	1.58412507362664E-05	-4.64435961097479E-06
0.95245361328125	55.2859018604165	1.37725830078125E-06	0.95367431640625	2	1188	1.58412507362664E-05	-4.64435961097479E-06
0.954437255859375	55.3057378603664	1.4044189453125E-06	0.95550537109375	2	1189	1.58412507362664E-05	-4.64435961097479E-06
0.9564208984375	55.3255738603164	1.431884765625E-06	0.95703125	2	1190	1.58412507362664E-05	-4.64435961097479E-06
0.958404541015625	55.3454098602663	1.4593505859375E-06	0.95916748046875	2	1191	1.58412507362664E-05	-4.64435961097479E-06
0.96038818359375	55.3652458602162	1.485595703125E-06	0.96160888671875	2	1192	1.58412507362664E-05	-4.64435961097479E-06
0.962371826171875	55.3850818601661	1.51214599609375E-06	0.96343994140625	2	1193	1.58412507362664E-05	-4.64435961097479E-06
0.96435546875	55.404917860116	1.53778076171875E-06	0.965576171875	2	1194	1.58412507362664E-05	-4.64435961097479E-06
0.966339111328125	55.4247538600659	1.56585693359375E-06	0.9674072265625	2	1195	1.58412507362664E-05	-4.64435961097479E-06
0.96832275390625	55.4445898600159	1.59027099609375E-06	0.96954345703125	2	1196	1.58412507362664E-05	-4.64435961097479E-06
0.970306396484375	55.4644258599658	1.61651611328125E-06	0.9716796875	2	1197	1.58412507362664E-05	-4.64435961097479E-06
0.9722900390625	55.4842618599157	1.64154052734375E-06	0.9735107421875	2	1198	1.58412507362664E-05	-4.64435961097479E-06
0.974273681640625	55.5040978598656	1.663818359375E-06	0.975341796875	2	1199	1.58412507362664E-05	-4.64435961097479E-06
0.97625732421875	55.5239338598155	1.68792724609375E-06	0.9771728515625	2	1200	1.58412507362664E-05	-4.64435961097479E-06
0.978240966796875	55.5437698597655	1.7108154296875E-06	0.97900390625	2	1201	1.58412507362664E-05	-4.64435961097479E-06
0.980224609375	55.5636058597154	1.73309326171875E-06	0.98114013671875	2	1202	1.58412507362664E-05	-4.64435961097479E-06
0.982208251953125	55.5834418596653	1.75537109375E-06	0.9832763671875	2	1203	1.58412507362664E-05	-4.64435961097479E-06
0.98419189453125	55.6032778596152	1.77734375E-06	0.98541259765625	2	1204	1.58412507362664E-05	-4.64435961097479E-06
0.986175537109375	55.6231138595651	1.7974853515625E-06	0.98724365234375	2	1205	1.58412507362664E-05	-4.64435961097479E-06
0.9881591796875	55.6429498595151	1.81884765625E-06	0.9893798828125	2	1206	1.58412507362664E-05	-4.64435961097479E-06
0.990142822265625	55.662785859465	1.83685302734375E-06	0.99151611328125	2	1207	1.58412507362664E-05	-4.64435961097479E-06
0.99212646484375	55.6826218594149	1.85516357421875E-06	0.9930419921875	2	1208	1.58412507362664E-05	-4.64435961097479E-06
0.994110107421875	55.7024578593648	1.8731689453125E-06	0.9954833984375	2	1209	1.58412507362664E-05	-4.64435961097479E-06
0.99609375	55.7222938593147	1.8890380859375E-06	0.997314453125	2	1210	1.58412507362664E-05	-4.64435961097479E-06
0.998077392578125	55.7421298592647	1.90582275390625E-06	0.99945068359375	2	1211	1.58412507362664E-05	-4.64435961097479E-06
1.00006103515625	55.7619658592146	1.92169189453125E-06	1.00128173828125	2	1212	1.58412507362664E-05	-4.64435961097479E-06
1.00204467773438	55.7818018591645	1.93695068359375E-06	1.00372314453125	2	1213	1.58412507362664E-05	-4.64435961097479E-06
1.0040283203125	55.8016378591144	1.95098876953125E-06	1.004638671875	2	1214	1.58412507362664E-05	-4.64435961097479E-06
1.00601196289063	55.8214738590643	1.96533203125E-06	1.00738525390625	2	1215	1.58412507362664E-05	-4.64435961097479E-06
1.00799560546875	55.8413098590142	1.97845458984375E-06	1.00860595703125	2	1216	1.58412507362664E-05	-4.64435961097479E-06
1.00997924804688	55.8611458589642	1.99005126953125E-06	1.0113525390625	2	1217	1.58412507362664E-05	-4.64435961097479E-06
1.011962890625	55.8809818589141	2.00164794921875E-06	1.01287841796875	2	1218	1.58412507362664E-05	-4.64435961097479E-06
1.01394653320313	55.900817858864	2.012939453125E-06	1.01531982421875	2	1219	1.58412507362664E-05	-4.64435961097479E-06
1.01593017578125	55.9206538588139	2.02362060546875E-06	1.01715087890625	2	1220	1.58412507362664E-05	-4.64435961097479E-06
1.01791381835938	55.9404898587638	2.03369140625E-06	1.0186767578125	2	1221	1.58412507362664E-05	-4.64435961097479E-06
1.0198974609375	55.9603258587138	2.04376220703125E-06	1.02081298828125	2	1222	1.58412507362664E-05	-4.64435961097479E-06
1.02188110351563	55.9801618586637	2.05352783203125E-06	1.02203369140625	2	1223	1.58412507362664E-05	-4.64435961097479E-06
1.02386474609375	55.9999978586136	2.06268310546875E-06	1.025390625	2	1224	1.58412507362664E-05	-4.64435961097479E-06
1.02584838867188	56.0198338585635	2.07183837890625E-06	1.02691650390625	2	1225	1.58412507362664E-05	-4.64435961097479E-06
1.02783203125	56.0396698585134	2.08251953125E-06	1.0284423828125	2	1226	1.58412507362664E-05	-4.64435961097479E-06
1.02981567382813	56.0595058584634	2.08984375E-06	1.0308837890625	2	1227	1.58412507362664E-05	-4.64435961097479E-06
1.03179931640625	56.0793418584133	2.098388671875E-06	1.0333251953125	2	1228	1.58412507362664E-05	-4.64435961097479E-06
1.03378295898438	56.0991778583632	2.1063232421875E-06	1.0345458984375	2	1229	1.58412507362664E-05	-4.64435961097479E-06
1.0357666015625	56.1190138583131	2.115478515625E-06	1.03729248046875	2	1230	1.58412507362664E-05	-4.64435961097479E-06
1.03775024414063	56.138849858263	2.12432861328125E-06	1.03912353515625	2	1231	1.58412507362664E-05	-4.64435961097479E-06
1.03973388671875	56.1586858582129	2.13287353515625E-06	1.04095458984375	2	1232	1.58412507362664E-05	-4.64435961097479E-06
1.04171752929688	56.1785218581629	2.14202880859375E-06	1.04248046875	2	1233	1.58412507362664E-05	-4.64435961097479E-06
1.043701171875	56.1983578581128	2.1502685546875E-06	1.04522705078125	2	1234	1.58412507362664E-05	-4.64435961097479E-06
1.04568481445313	56.2181938580627	2.15911865234375E-06	1.04644775390625	2	1235	1.58412507362664E-05	-4.64435961097479E-06
1.04766845703125	56.2380298580126	2.1685791015625E-06	1.0491943359375	2	1236	1.58412507362664E-05	-4.64435961097479E-06
1.04965209960938	56.2578658579625	2.177734375E-06	1.05072021484375	2	1237	1.58412507362664E-05	-4.64435961097479E-06
1.0516357421875	56.2777018579125	2.18719482421875E-06	1.05255126953125	2	1238	1.58412507362664E-05	-4.64435961097479E-06
1.05361938476563	56.2975378578624	2.19696044921875E-06	1.0540771484375	2	1239	1.58412507362664E-05	-4.64435961097479E-06
1.05560302734375	56.3173738578123	2.20703125E-06	1.05682373046875	2	1240	1.58412507362664E-05	-4.64435961097479E-06
1.05758666992188	56.3372098577622	2.21832275390625E-06	1.0589599609375	2	1241	1.58412507362664E-05	-4.64435961097479E-06
1.0595703125	56.3570458577121	2.22869873046875E-06	1.060791015625	2	1242	1.58412507362664E-05	-4.64435961097479E-06
1.06155395507813	56.3768818576621	2.24029541015625E-06	1.063232421875	2	1243	1.58412507362664E-05	-4.64435961097479E-06
1.06353759765625	56.396717857612	2.25250244140625E-06	1.064453125	2	1244	1.58412507362664E-05	-4.64435961097479E-06
1.06552124023438	56.4165538575619	2.26531982421875E-06	1.06689453125	2	1245	1.58412507362664E-05	-4.64435961097479E-06
1.0675048828125	56.4363898575118	2.2772216796875E-06	1.06903076171875	2	1246	1.58412507362664E-05	-4.64435961097479E-06
1.06948852539063	56.4562258574617	2.2906494140625E-06	1.07147216796875	2	1247	1.58412507362664E-05	-4.64435961097479E-06
1.07147216796875	56.4760618574117	2.3040771484375E-06	1.07208251953125	2	1248	1.58412507362664E-05	-4.64435961097479E-06
1.07345581054688	56.4958978573616	2.31842041015625E-06	1.07513427734375	2	1249	1.58412507362664E-05	-4.64435961097479E-06
1.075439453125	56.5157338573115	2.3333740234375E-06	1.07666015625	2	1250	1.58412507362664E-05	-4.64435961097479E-06
1.07742309570313	56.5355698572614	2.34832763671875E-06	1.07818603515625	2	1251	1.58412507362664E-05	-4.64435961097479E-06
1.07940673828125	56.5554058572113	2.36480712890625E-06	1.0809326171875	2	1252	1.58412507362664E-05	-4.64435961097479E-06
1.08139038085938	56.5752418571612	2.3809814453125E-06	1.08306884765625	2	1253	1.58412507362664E-05	-4.64435961097479E-06
1.0833740234375	56.5950778571112	2.39715576171875E-06	1.08428955078125	2	1254	1.58412507362664E-05	-4.64435961097479E-06
1.08535766601563	56.6149138570611	2.41424560546875E-06	1.08612060546875	2	1255	1.58412507362664E-05	-4.64435961097479E-06
1.08734130859375	56.634749857011	2.431640625E-06	1.08856201171875	2	1256	1.58412507362664E-05	-4.64435961097479E-06
1.08932495117188	56.6545858569609	2.45025634765625E-06	1.09039306640625	2	1257	1.58412507362664E-05	-4.64435961097479E-06
1.09130859375	56.6744218569108	2.4676513671875E-06	1.092529296875	2	1258	1.58412507362664E-05	-4.64435961097479E-06
1.09329223632813	56.6942578568608	2.48748779296875E-06	1.09405517578125	2	1259	1.58412507362664E-05	-4.64435961097479E-06
1.09527587890625	56.7140938568107	2.5067138671875E-06	1.09619140625	2	1260	1.58412507362664E-05	-4.64435961097479E-06
1.09725952148438	56.7339298567606	2.52685546875E-06	1.09832763671875	2	1261	1.58412507362664E-05	-4.64435961097479E-06
1.0992431640625	56.7537658567105	2.54608154296875E-06	1.099853515625	2	1262	1.58412507362664E-05	-4.64435961097479E-06
1.10122680664063	56.7736018566604	2.56622314453125E-06	1.102294921875	2	1263	1.58412507362664E-05	-4.64435961097479E-06
1.10321044921875	56.7934378566104	2.58697509765625E-06	1.1041259765625	2	1264	1.58412507362664E-05	-4.64435961097479E-06
1.10519409179688	56.8132738565603	2.60650634765625E-06	1.10595703125	2	1265	1.58412507362664E-05	-4.64435961097479E-06
1.107177734375	56.8331098565102	2.6275634765625E-06	1.10809326171875	2	1266	1.58412507362664E-05	-4.64435961097479E-06
1.10916137695313	56.8529458564601	2.64862060546875E-06	1.10992431640625	2	1267	1.58412507362664E-05	-4.64435961097479E-06
1.11114501953125	56.87278185641	2.6690673828125E-06	1.112060546875	2	1268	1.58412507362664E-05	-4.64435961097479E-06
1.11312866210938	56.8926178563599	2.69012451171875E-06	1.11419677734375	2	1269	1.58412507362664E-05	-4.64435961097479E-06
1.1151123046875	56.9124538563099	2.71087646484375E-06	1.11602783203125	2	1270	1.58412507362664E-05	-4.64435961097479E-06
1.11709594726563	56.9322898562598	2.73101806640625E-06	1.1181640625	2	1271	1.58412507362664E-05	-4.64435961097479E-06
1.11907958984375	56.9521258562097	2.75177001953125E-06	1.12030029296875	2	1272	1.58412507362664E-05	-4.64435961097479E-06
1.12106323242188	56.9719618561596	2.77252197265625E-06	1.121826171875	2	1273	1.58412507362664E-05	-4.64435961097479E-06
1.123046875	56.9917978561095	2.791748046875E-06	1.12396240234375	2	1274	1.58412507362664E-05	-4.64435961097479E-06
1.12503051757813	57.0116338560595	2.8106689453125E-06	1.1260986328125	2	1275	1.58412507362664E-05	-4.64435961097479E-06
1.12701416015625	57.0314698560094	2.82989501953125E-06	1.12823486328125	2	1276	1.58412507362664E-05	-4.64435961097479E-06
1.12899780273438	57.0513058559593	2.84881591796875E-06	1.13006591796875	2	1277	1.58412507362664E-05	-4.64435961097479E-06
1.1309814453125	57.0711418559092	2.86529541015625E-06	1.131591796875	2	1278	1.58412507362664E-05	-4.64435961097479E-06
1.13296508789063	57.0909778558591	2.88360595703125E-06	1.13372802734375	2	1279	1.58412507362664E-05	-4.64435961097479E-06
1.13494873046875	57.1108138558091	2.90008544921875E-06	1.13616943359375	2	1280	1.58412507362664E-05	-4.64435961097479E-06
1.13693237304688	57.130649855759	2.9168701171875E-06	1.13739013671875	2	1281	1.58412507362664E-05	-4.64435961097479E-06
1.138916015625	57.1504858557089	2.93304443359375E-06	1.13983154296875	2	1282	1.58412507362664E-05	-4.64435961097479E-06
1.14089965820313	57.1703218556588	2.9473876953125E-06	1.14166259765625	2	1283	1.58412507362664E-05	-4.64435961097479E-06
1.14288330078125	57.1901578556087	2.96173095703125E-06	1.143798828125	2	1284	1.58412507362664E-05	-4.64435961097479E-06
1.14486694335938	57.2099938555587	2.97454833984375E-06	1.14593505859375	2	1285	1.58412507362664E-05	-4.64435961097479E-06
1.1468505859375	57.2298298555086	2.987060546875E-06	1.1480712890625	2	1286	1.58412507362664E-05	-4.64435961097479E-06
1.14883422851563	57.2496658554585	2.999267578125E-06	1.14990234375	2	1287	1.58412507362664E-05	-4.64435961097479E-06
1.15081787109375	57.2695018554084	3.01116943359375E-06	1.151123046875	2	1288	1.58412507362664E-05	-4.64435961097479E-06
1.15280151367188	57.2893378553583	3.02032470703125E-06	1.15386962890625	2	1289	1.58412507362664E-05	-4.64435961097479E-06
1.15478515625	57.3091738553082	3.0303955078125E-06	1.15631103515625	2	1290	1.58412507362664E-05	-4.64435961097479E-06
1.15676879882813	57.3290098552582	3.038330078125E-06	1.15692138671875	2	1291	1.58412507362664E-05	-4.64435961097479E-06
1.15875244140625	57.3488458552081	3.04595947265625E-06	1.15966796875	2	1292	1.58412507362664E-05	-4.64435961097479E-06
1.16073608398438	57.368681855158	3.052978515625E-06	1.1614990234375	2	1293	1.58412507362664E-05	-4.64435961097479E-06
1.1627197265625	57.3885178551079	3.05908203125E-06	1.16424560546875	2	1294	1.58412507362664E-05	-4.64435961097479E-06
1.16470336914063	57.4083538550578	3.0645751953125E-06	1.165771484375	2	1295	1.58412507362664E-05	-4.64435961097479E-06
1.16668701171875	57.4281898550078	3.06793212890625E-06	1.1669921875	2	1296	1.58412507362664E-05	-4.64435961097479E-06
1.16867065429688	57.4480258549577	3.0718994140625E-06	1.16973876953125	2	1297	1.58412507362664E-05	-4.64435961097479E-06
1.170654296875	57.4678618549076	3.07342529296875E-06	1.171875	2	1298	1.58412507362664E-05	-4.64435961097479E-06
1.17263793945313	57.4876978548575	3.07586669921875E-06	1.17340087890625	2	1299	1.58412507362664E-05	-4.64435961097479E-06
1.17462158203125	57.5075338548074	3.07708740234375E-06	1.17584228515625	2	1300	1.58412507362664E-05	-4.64435961097479E-06
1.17660522460938	57.5273698547574	3.0780029296875E-06	1.17767333984375	2	1301	1.58412507362664E-05	-4.64435961097479E-06
1.1785888671875	57.5472058547073	3.07647705078125E-06	1.17919921875	2	1302	1.58412507362664E-05	-4.64435961097479E-06
1.18057250976563	57.5670418546572	3.07525634765625E-06	1.181640625	2	1303	1.58412507362664E-05	-4.64435961097479E-06
1.18255615234375	57.5868778546071	3.0731201171875E-06	1.18408203125	2	1304	1.58412507362664E-05	-4.64435961097479E-06
1.18453979492188	57.606713854557	3.07098388671875E-06	1.1859130859375	2	1305	1.58412507362664E-05	-4.64435961097479E-06
1.1865234375	57.6265498545069	3.067626953125E-06	1.187744140625	2	1306	1.58412507362664E-05	-4.64435961097479E-06
1.18850708007813	57.6463858544569	3.06488037109375E-06	1.18988037109375	2	1307	1.58412507362664E-05	-4.64435961097479E-06
1.19049072265625	57.6662218544068	3.05938720703125E-06	1.19171142578125	2	1308	1.58412507362664E-05	-4.64435961097479E-06
1.19247436523438	57.6860578543567	3.0548095703125E-06	1.1944580078125	2	1309	1.58412507362664E-05	-4.64435961097479E-06
1.1944580078125	57.7058938543066	3.04962158203125E-06	1.19537353515625	2	1310	1.58412507362664E-05	-4.64435961097479E-06
1.19644165039063	57.7257298542565	3.04412841796875E-06	1.19720458984375	2	1311	1.58412507362664E-05	-4.64435961097479E-06
1.19842529296875	57.7455658542065	3.0377197265625E-06	1.19964599609375	2	1312	1.58412507362664E-05	-4.64435961097479E-06
1.20040893554688	57.7654018541564	3.0316162109375E-06	1.201171875	2	1313	1.58412507362664E-05	-4.64435961097479E-06
1.202392578125	57.7852378541063	3.02398681640625E-06	1.20330810546875	2	1314	1.58412507362664E-05	-4.64435961097479E-06
1.20437622070313	57.8050738540562	3.01605224609375E-06	1.2054443359375	2	1315	1.58412507362664E-05	-4.64435961097479E-06
1.20635986328125	57.8249098540061	3.0084228515625E-06	1.20697021484375	2	1316	1.58412507362664E-05	-4.64435961097479E-06
1.20834350585938	57.8447458539561	3.00018310546875E-06	1.2091064453125	2	1317	1.58412507362664E-05	-4.64435961097479E-06
1.2103271484375	57.864581853906	2.99102783203125E-06	1.2109375	2	1318	1.58412507362664E-05	-4.64435961097479E-06
1.21231079101563	57.8844178538559	2.98248291015625E-06	1.21337890625	2	1319	1.58412507362664E-05	-4.64435961097479E-06
1.21429443359375	57.9042538538058	2.9730224609375E-06	1.21490478515625	2	1320	1.58412507362664E-05	-4.64435961097479E-06
1.21627807617188	57.9240898537557	2.96356201171875E-06	1.21734619140625	2	1321	1.58412507362664E-05	-4.64435961097479E-06
1.21826171875	57.9439258537057	2.95379638671875E-06	1.21917724609375	2	1322	1.58412507362664E-05	-4.64435961097479E-06
1.22024536132813	57.9637618536556	2.9443359375E-06	1.22161865234375	2	1323	1.58412507362664E-05	-4.64435961097479E-06
1.22222900390625	57.9835978536055	2.93487548828125E-06	1.22344970703125	2	1324	1.58412507362664E-05	-4.64435961097479E-06
1.22421264648438	58.0034338535554	2.9241943359375E-06	1.22467041015625	2	1325	1.58412507362664E-05	-4.64435961097479E-06
1.2261962890625	58.0232698535053	2.9144287109375E-06	1.2274169921875	2	1326	1.58412507362664E-05	-4.64435961097479E-06
1.22817993164063	58.0431058534552	2.904052734375E-06	1.22955322265625	2	1327	1.58412507362664E-05	-4.64435961097479E-06
1.23016357421875	58.0629418534052	2.8936767578125E-06	1.231689453125	2	1328	1.58412507362664E-05	-4.64435961097479E-06
1.23214721679688	58.0827778533551	2.8826904296875E-06	1.23260498046875	2	1329	1.58412507362664E-05	-4.64435961097479E-06
1.234130859375	58.102613853305	2.8717041015625E-06	1.2353515625	2	1330	1.58412507362664E-05	-4.64435961097479E-06
1.23611450195313	58.1224498532549	2.86163330078125E-06	1.23687744140625	2	1331	1.58412507362664E-05	-4.64435961097479E-06
1.23809814453125	58.1422858532048	2.850341796875E-06	1.23870849609375	2	1332	1.58412507362664E-05	-4.64435961097479E-06
1.24008178710938	58.1621218531548	2.83935546875E-06	1.2408447265625	2	1333	1.58412507362664E-05	-4.64435961097479E-06
1.2420654296875	58.1819578531047	2.82867431640625E-06	1.2432861328125	2	1334	1.58412507362664E-05	-4.64435961097479E-06
1.24404907226563	58.2017938530546	2.81768798828125E-06	1.2451171875	2	1335	1.58412507362664E-05	-4.64435961097479E-06
1.24603271484375	58.2216298530045	2.80670166015625E-06	1.2469482421875	2	1336	1.58412507362664E-05	-4.64435961097479E-06
1.24801635742188	58.2414658529544	2.7960205078125E-06	1.2493896484375	2	1337	1.58412507362664E-05	-4.64435961097479E-06
1.25	58.2613018529044	2.7850341796875E-06	1.2506103515625	2	1338	1.58412507362664E-05	-4.64435961097479E-06
1.25198364257813	58.2811378528543	2.774658203125E-06	1.25244140625	2	1339	1.58412507362664E-05	-4.64435961097479E-06
1.25396728515625	58.3009738528042	2.76336669921875E-06	1.25518798828125	2	1340	1.58412507362664E-05	-4.64435961097479E-06
1.25595092773438	58.3208098527541	2.7520751953125E-06	1.2567138671875	2	1341	1.58412507362664E-05	-4.64435961097479E-06
1.2579345703125	58.340645852704	2.74169921875E-06	1.25885009765625	2	1342	1.58412507362664E-05	-4.64435961097479E-06
1.25991821289063	58.3604818526539	2.7313232421875E-06	1.26068115234375	2	1343	1.58412507362664E-05	-4.64435961097479E-06
1.26190185546875	58.3803178526039	2.720947265625E-06	1.26251220703125	2	1344	1.58412507362664E-05	-4.64435961097479E-06
1.26388549804688	58.4001538525538	2.71026611328125E-06	1.26495361328125	2	1345	1.58412507362664E-05	-4.64435961097479E-06
1.265869140625	58.4199898525037	2.70050048828125E-06	1.2664794921875	2	1346	1.58412507362664E-05	-4.64435961097479E-06
1.26785278320313	58.4398258524536	2.6898193359375E-06	1.26861572265625	2	1347	1.58412507362664E-05	-4.64435961097479E-06
1.26983642578125	58.4596618524035	2.67974853515625E-06	1.27105712890625	2	1348	1.58412507362664E-05	-4.64435961097479E-06
1.27182006835938	58.4794978523535	2.6690673828125E-06	1.27288818359375	2	1349	1.58412507362664E-05	-4.64435961097479E-06
1.2738037109375	58.4993338523034	2.659912109375E-06	1.27471923828125	2	1350	1.58412507362664E-05	-4.64435961097479E-06
1.27578735351563	58.5191698522533	2.64984130859375E-06	1.27685546875	2	1351	1.58412507362664E-05	-4.64435961097479E-06
1.27777099609375	58.5390058522032	2.64007568359375E-06	1.2786865234375	2	1352	1.58412507362664E-05	-4.64435961097479E-06
1.27975463867188	58.5588418521531	2.630615234375E-06	1.280517578125	2	1353	1.58412507362664E-05	-4.64435961097479E-06
1.28173828125	58.5786778521031	2.62115478515625E-06	1.282958984375	2	1354	1.58412507362664E-05	-4.64435961097479E-06
1.28372192382813	58.598513852053	2.6123046875E-06	1.2847900390625	2	1355	1.58412507362664E-05	-4.64435961097479E-06
1.28570556640625	58.6183498520029	2.6031494140625E-06	1.28692626953125	2	1356	1.58412507362664E-05	-4.64435961097479E-06
1.28768920898438	58.6381858519528	2.59429931640625E-06	1.2890625	2	1357	1.58412507362664E-05	-4.64435961097479E-06
1.2896728515625	58.6580218519027	2.58575439453125E-06	1.290283203125	2	1358	1.58412507362664E-05	-4.64435961097479E-06
1.29165649414063	58.6778578518527	2.57659912109375E-06	1.29241943359375	2	1359	1.58412507362664E-05	-4.64435961097479E-06
1.29364013671875	58.6976938518026	2.56866455078125E-06	1.29486083984375	2	1360	1.58412507362664E-05	-4.64435961097479E-06
1.29562377929688	58.7175298517525	2.56011962890625E-06	1.29669189453125	2	1361	1.58412507362664E-05	-4.64435961097479E-06
1.297607421875	58.7373658517024	2.552490234375E-06	1.2982177734375	2	1362	1.58412507362664E-05	-4.64435961097479E-06
1.29959106445313	58.7572018516523	2.5439453125E-06	1.3006591796875	2	1363	1.58412507362664E-05	-4.64435961097479E-06
1.30157470703125	58.7770378516022	2.5360107421875E-06	1.30218505859375	2	1364	1.58412507362664E-05	-4.64435961097479E-06
1.30355834960938	58.7968738515522	2.52838134765625E-06	1.30462646484375	2	1365	1.58412507362664E-05	-4.64435961097479E-06
1.3055419921875	58.8167098515021	2.52105712890625E-06	1.3067626953125	2	1366	1.58412507362664E-05	-4.64435961097479E-06
1.30752563476563	58.836545851452	2.513427734375E-06	1.30828857421875	2	1367	1.58412507362664E-05	-4.64435961097479E-06
1.30950927734375	58.8563818514019	2.5067138671875E-06	1.31011962890625	2	1368	1.58412507362664E-05	-4.64435961097479E-06
1.31149291992188	58.8762178513518	2.5E-06	1.31256103515625	2	1369	1.58412507362664E-05	-4.64435961097479E-06
1.3134765625	58.8960538513018	2.4932861328125E-06	1.31500244140625	2	1370	1.58412507362664E-05	-4.64435961097479E-06
1.31546020507813	58.9158898512517	2.48687744140625E-06	1.31622314453125	2	1371	1.58412507362664E-05	-4.64435961097479E-06
1.31744384765625	58.9357258512016	2.48077392578125E-06	1.3189697265625	2	1372	1.58412507362664E-05	-4.64435961097479E-06
1.31942749023438	58.9555618511515	2.474365234375E-06	1.32049560546875	2	1373	1.58412507362664E-05	-4.64435961097479E-06
1.3214111328125	58.9753978511014	2.46856689453125E-06	1.32293701171875	2	1374	1.58412507362664E-05	-4.64435961097479E-06
1.32339477539063	58.9952338510514	2.46246337890625E-06	1.32476806640625	2	1375	1.58412507362664E-05	-4.64435961097479E-06
1.32537841796875	59.0150698510013	2.4566650390625E-06	1.3262939453125	2	1376	1.58412507362664E-05	-4.64435961097479E-06
1.32736206054688	59.0349058509512	2.45086669921875E-06	1.328125	2	1377	1.58412507362664E-05	-4.64435961097479E-06
1.329345703125	59.0547418509011	2.4462890625E-06	1.3299560546875	2	1378	1.58412507362664E-05	-4.64435961097479E-06
1.33132934570313	59.074577850851	2.44049072265625E-06	1.33209228515625	2	1379	1.58412507362664E-05	-4.64435961097479E-06
1.33331298828125	59.0944138508009	2.4359130859375E-06	1.334228515625	2	1380	1.58412507362664E-05	-4.64435961097479E-06
1.33529663085938	59.1142498507509	2.430419921875E-06	1.3360595703125	2	1381	1.58412507362664E-05	-4.64435961097479E-06
1.3372802734375	59.1340858507008	2.4261474609375E-06	1.337890625	2	1382	1.58412507362664E-05	-4.64435961097479E-06
1.33926391601563	59.1539218506507	2.42218017578125E-06	1.34002685546875	2	1383	1.58412507362664E-05	-4.64435961097479E-06
1.34124755859375	59.1737578506006	2.418212890625E-06	1.341552734375	2	1384	1.58412507362664E-05	-4.64435961097479E-06
1.34323120117188	59.1935938505505	2.4139404296875E-06	1.34429931640625	2	1385	1.58412507362664E-05	-4.64435961097479E-06
1.34521484375	59.2134298505005	2.40997314453125E-06	1.34552001953125	2	1386	1.58412507362664E-05	-4.64435961097479E-06
1.34719848632813	59.2332658504504	2.406005859375E-06	1.34765625	2	1387	1.58412507362664E-05	-4.64435961097479E-06
1.34918212890625	59.2531018504003	2.40234375E-06	1.35009765625	2	1388	1.58412507362664E-05	-4.64435961097479E-06
1.35116577148438	59.2729378503502	2.39898681640625E-06	1.3519287109375	2	1389	1.58412507362664E-05	-4.64435961097479E-06
1.3531494140625	59.2927738503001	2.3956298828125E-06	1.35467529296875	2	1390	1.58412507362664E-05	-4.64435961097479E-06
1.35513305664063	59.3126098502501	2.392578125E-06	1.35650634765625	2	1391	1.58412507362664E-05	-4.64435961097479E-06
1.35711669921875	59.3324458502	2.39044189453125E-06	1.35772705078125	2	1392	1.58412507362664E-05	-4.64435961097479E-06
1.35910034179688	59.3522818501499	2.386474609375E-06	1.36016845703125	2	1393	1.58412507362664E-05	-4.64435961097479E-06
1.361083984375	59.3721178500998	2.38372802734375E-06	1.3623046875	2	1394	1.58412507362664E-05	-4.64435961097479E-06
1.36306762695313	59.3919538500497	2.38189697265625E-06	1.36383056640625	2	1395	1.58412507362664E-05	-4.64435961097479E-06
1.36505126953125	59.4117898499996	2.379150390625E-06	1.365966796875	2	1396	1.58412507362664E-05	-4.64435961097479E-06
1.36703491210938	59.4316258499496	2.37640380859375E-06	1.3677978515625	2	1397	1.58412507362664E-05	-4.64435961097479E-06
1.3690185546875	59.4514618498995	2.37457275390625E-06	1.36993408203125	2	1398	1.58412507362664E-05	-4.64435961097479E-06
1.37100219726563	59.4712978498494	2.3724365234375E-06	1.3720703125	2	1399	1.58412507362664E-05	-4.64435961097479E-06
1.37298583984375	59.4911338497993	2.37091064453125E-06	1.37359619140625	2	1400	1.58412507362664E-05	-4.64435961097479E-06
1.37496948242188	59.5109698497492	2.369384765625E-06	1.37603759765625	2	1401	1.58412507362664E-05	-4.64435961097479E-06
1.376953125	59.5308058496992	2.36724853515625E-06	1.37786865234375	2	1402	1.58412507362664E-05	-4.64435961097479E-06
1.37893676757813	59.5506418496491	2.36602783203125E-06	1.3800048828125	2	1403	1.58412507362664E-05	-4.64435961097479E-06
1.38092041015625	59.570477849599	2.36480712890625E-06	1.38214111328125	2	1404	1.58412507362664E-05	-4.64435961097479E-06
1.38290405273438	59.5903138495489	2.36358642578125E-06	1.38427734375	2	1405	1.58412507362664E-05	-4.64435961097479E-06
1.3848876953125	59.6101498494988	2.36236572265625E-06	1.385498046875	2	1406	1.58412507362664E-05	-4.64435961097479E-06
1.38687133789063	59.6299858494488	2.36114501953125E-06	1.387939453125	2	1407	1.58412507362664E-05	-4.64435961097479E-06
1.38885498046875	59.6498218493987	2.36053466796875E-06	1.39007568359375	2	1408	1.58412507362664E-05	-4.64435961097479E-06
1.39083862304688	59.6696578493486	2.3602294921875E-06	1.39068603515625	2	1409	1.58412507362664E-05	-4.64435961097479E-06
1.392822265625	59.6894938492985	2.359619140625E-06	1.39312744140625	2	1410	1.58412507362664E-05	-4.64435961097479E-06
1.39480590820313	59.7093298492484	2.3590087890625E-06	1.39556884765625	2	1411	1.58412507362664E-05	-4.64435961097479E-06
1.39678955078125	59.7291658491984	2.3590087890625E-06	1.3983154296875	2	1412	1.58412507362664E-05	-4.64435961097479E-06
1.39877319335938	59.7490018491483	2.3583984375E-06	1.3995361328125	2	1413	1.58412507362664E-05	-4.64435961097479E-06
1.4007568359375	59.7688378490982	2.35870361328125E-06	1.4019775390625	2	1414	1.58412507362664E-05	-4.64435961097479E-06
1.39877319335938	59.7886738490481	2.3138427734375E-06	1.39984130859375	2	1415	1.58412507362664E-05	-4.64435961097479E-06
1.39678955078125	59.808509848998	2.27752685546875E-06	1.39739990234375	2	1416	1.58412507362664E-05	-4.64435961097479E-06
1.39480590820313	59.8283458489479	2.2454833984375E-06	1.3958740234375	2	1417	1.58412507362664E-05	-4.64435961097479E-06
1.392822265625	59.8481818488979	2.21466064453125E-06	1.39434814453125	2	1418	1.58412507362664E-05	-4.64435961097479E-06
1.39083862304688	59.8680178488478	2.18719482421875E-06	1.3916015625	2	1419	1.58412507362664E-05	-4.64435961097479E-06
1.38885498046875	59.8878538487977	2.16156005859375E-06	1.3897705078125	2	1420	1.58412507362664E-05	-4.64435961097479E-06
1.38687133789063	59.9076898487476	2.1356201171875E-06	1.38824462890625	2	1421	1.58412507362664E-05	-4.64435961097479E-06
1.3848876953125	59.9275258486975	2.11212158203125E-06	1.385498046875	2	1422	1.58412507362664E-05	-4.64435961097479E-06
1.38290405273438	59.9473618486475	2.08953857421875E-06	1.38427734375	2	1423	1.58412507362664E-05	-4.64435961097479E-06
1.38092041015625	59.9671978485974	2.06787109375E-06	1.38214111328125	2	1424	1.58412507362664E-05	-4.64435961097479E-06
1.37893676757813	59.9870338485473	2.04681396484375E-06	1.38031005859375	2	1425	1.58412507362664E-05	-4.64435961097479E-06
1.376953125	60.0068698484972	2.0263671875E-06	1.37847900390625	2	1426	1.58412507362664E-05	-4.64435961097479E-06
1.37496948242188	60.0267058484471	2.0074462890625E-06	1.37542724609375	2	1427	1.58412507362664E-05	-4.64435961097479E-06
1.37298583984375	60.0465418483971	1.98883056640625E-06	1.37420654296875	2	1428	1.58412507362664E-05	-4.64435961097479E-06
1.37100219726563	60.066377848347	1.97113037109375E-06	1.3720703125	2	1429	1.58412507362664E-05	-4.64435961097479E-06
1.3690185546875	60.0862138482969	1.9537353515625E-06	1.3702392578125	2	1430	1.58412507362664E-05	-4.64435961097479E-06
1.36703491210938	60.1060498482468	1.93603515625E-06	1.36810302734375	2	1431	1.58412507362664E-05	-4.64435961097479E-06
1.36505126953125	60.1258858481967	1.91986083984375E-06	1.3653564453125	2	1432	1.58412507362664E-05	-4.64435961097479E-06
1.36306762695313	60.1457218481466	1.90460205078125E-06	1.3641357421875	2	1433	1.58412507362664E-05	-4.64435961097479E-06
1.361083984375	60.1655578480966	1.88934326171875E-06	1.3616943359375	2	1434	1.58412507362664E-05	-4.64435961097479E-06
1.35910034179688	60.1853938480465	1.8731689453125E-06	1.36016845703125	2	1435	1.58412507362664E-05	-4.64435961097479E-06
1.35711669921875	60.2052298479964	1.8585205078125E-06	1.358642578125	2	1436	1.58412507362664E-05	-4.64435961097479E-06
1.35513305664063	60.2250658479463	1.84417724609375E-06	1.35589599609375	2	1437	1.58412507362664E-05	-4.64435961097479E-06
1.3531494140625	60.2449018478962	1.829833984375E-06	1.35467529296875	2	1438	1.58412507362664E-05	-4.64435961097479E-06
1.35116577148438	60.2647378478462	1.81640625E-06	1.35284423828125	2	1439	1.58412507362664E-05	-4.64435961097479E-06
1.34918212890625	60.2845738477961	1.80267333984375E-06	1.3507080078125	2	1440	1.58412507362664E-05	-4.64435961097479E-06
1.34719848632813	60.304409847746	1.78985595703125E-06	1.3482666015625	2	1441	1.58412507362664E-05	-4.64435961097479E-06
1.34521484375	60.3242458476959	1.7767333984375E-06	1.346435546875	2	1442	1.58412507362664E-05	-4.64435961097479E-06
1.34323120117188	60.3440818476458	1.76422119140625E-06	1.34429931640625	2	1443	1.58412507362664E-05	-4.64435961097479E-06
1.34124755859375	60.3639178475958	1.75140380859375E-06	1.34185791015625	2	1444	1.58412507362664E-05	-4.64435961097479E-06
1.33926391601563	60.3837538475457	1.73919677734375E-06	1.34033203125	2	1445	1.58412507362664E-05	-4.64435961097479E-06
1.3372802734375	60.4035898474956	1.72698974609375E-06	1.33819580078125	2	1446	1.58412507362664E-05	-4.64435961097479E-06
1.33529663085938	60.4234258474455	1.71600341796875E-06	1.3360595703125	2	1447	1.58412507362664E-05	-4.64435961097479E-06
1.33331298828125	60.4432618473954	1.70440673828125E-06	1.334228515625	2	1448	1.58412507362664E-05	-4.64435961097479E-06
1.33132934570313	60.4630978473454	1.6925048828125E-06	1.331787109375	2	1449	1.58412507362664E-05	-4.64435961097479E-06
1.329345703125	60.4829338472953	1.68121337890625E-06	1.33026123046875	2	1450	1.58412507362664E-05	-4.64435961097479E-06
1.32736206054688	60.5027698472452	1.671142578125E-06	1.32843017578125	2	1451	1.58412507362664E-05	-4.64435961097479E-06
1.32537841796875	60.5226058471951	1.6595458984375E-06	1.326904296875	2	1452	1.58412507362664E-05	-4.64435961097479E-06
1.32339477539063	60.542441847145	1.6485595703125E-06	1.32415771484375	2	1453	1.58412507362664E-05	-4.64435961097479E-06
1.3214111328125	60.5622778470949	1.63848876953125E-06	1.3226318359375	2	1454	1.58412507362664E-05	-4.64435961097479E-06
1.31942749023438	60.5821138470449	1.6278076171875E-06	1.32110595703125	2	1455	1.58412507362664E-05	-4.64435961097479E-06
1.31744384765625	60.6019498469948	1.61712646484375E-06	1.31805419921875	2	1456	1.58412507362664E-05	-4.64435961097479E-06
1.31546020507813	60.6217858469447	1.60736083984375E-06	1.31591796875	2	1457	1.58412507362664E-05	-4.64435961097479E-06
1.3134765625	60.6416218468946	1.59698486328125E-06	1.31500244140625	2	1458	1.58412507362664E-05	-4.64435961097479E-06
1.31149291992188	60.6614578468445	1.5863037109375E-06	1.31256103515625	2	1459	1.58412507362664E-05	-4.64435961097479E-06
1.30950927734375	60.6812938467945	1.5765380859375E-06	1.31072998046875	2	1460	1.58412507362664E-05	-4.64435961097479E-06
1.30752563476563	60.7011298467444	1.5667724609375E-06	1.30859375	2	1461	1.58412507362664E-05	-4.64435961097479E-06
1.3055419921875	60.7209658466943	1.556396484375E-06	1.30615234375	2	1462	1.58412507362664E-05	-4.64435961097479E-06
1.30355834960938	60.7408018466442	1.54632568359375E-06	1.30523681640625	2	1463	1.58412507362664E-05	-4.64435961097479E-06
1.30157470703125	60.7606378465941	1.53717041015625E-06	1.302490234375	2	1464	1.58412507362664E-05	-4.64435961097479E-06
1.29959106445313	60.7804738465441	1.52679443359375E-06	1.3006591796875	2	1465	1.58412507362664E-05	-4.64435961097479E-06
1.297607421875	60.800309846494	1.51702880859375E-06	1.2982177734375	2	1466	1.58412507362664E-05	-4.64435961097479E-06
1.29562377929688	60.8201458464439	1.50726318359375E-06	1.2957763671875	2	1467	1.58412507362664E-05	-4.64435961097479E-06
1.29364013671875	60.8399818463938	1.49810791015625E-06	1.2945556640625	2	1468	1.58412507362664E-05	-4.64435961097479E-06
1.29165649414063	60.8598178463437	1.48773193359375E-06	1.292724609375	2	1469	1.58412507362664E-05	-4.64435961097479E-06
1.2896728515625	60.8796538462936	1.47857666015625E-06	1.29058837890625	2	1470	1.58412507362664E-05	-4.64435961097479E-06
1.28768920898438	60.8994898462436	1.46820068359375E-06	1.2884521484375	2	1471	1.58412507362664E-05	-4.64435961097479E-06
1.28570556640625	60.9193258461935	1.458740234375E-06	1.28631591796875	2	1472	1.58412507362664E-05	-4.64435961097479E-06
1.28372192382813	60.9391618461434	1.44866943359375E-06	1.28448486328125	2	1473	1.58412507362664E-05	-4.64435961097479E-06
1.28173828125	60.9589978460933	1.439208984375E-06	1.28265380859375	2	1474	1.58412507362664E-05	-4.64435961097479E-06
1.27975463867188	60.9788338460432	1.42974853515625E-06	1.28082275390625	2	1475	1.58412507362664E-05	-4.64435961097479E-06
1.27777099609375	60.9986698459932	1.41998291015625E-06	1.27838134765625	2	1476	1.58412507362664E-05	-4.64435961097479E-06
1.27578735351563	61.0185058459431	1.41082763671875E-06	1.27716064453125	2	1477	1.58412507362664E-05	-4.64435961097479E-06
1.2738037109375	61.038341845893	1.40045166015625E-06	1.27471923828125	2	1478	1.58412507362664E-05	-4.64435961097479E-06
1.27182006835938	61.0581778458429	1.390380859375E-06	1.27288818359375	2	1479	1.58412507362664E-05	-4.64435961097479E-06
1.26983642578125	61.0780138457928	1.380615234375E-06	1.27105712890625	2	1480	1.58412507362664E-05	-4.64435961097479E-06
1.26785278320313	61.0978498457428	1.37115478515625E-06	1.26861572265625	2	1481	1.58412507362664E-05	-4.64435961097479E-06
1.265869140625	61.1176858456927	1.361083984375E-06	1.26739501953125	2	1482	1.58412507362664E-05	-4.64435961097479E-06
1.26388549804688	61.1375218456426	1.3507080078125E-06	1.26495361328125	2	1483	1.58412507362664E-05	-4.64435961097479E-06
1.26190185546875	61.1573578455925	1.3409423828125E-06	1.263427734375	2	1484	1.58412507362664E-05	-4.64435961097479E-06
1.25991821289063	61.1771938455424	1.33056640625E-06	1.26068115234375	2	1485	1.58412507362664E-05	-4.64435961097479E-06
1.2579345703125	61.1970298454924	1.3201904296875E-06	1.258544921875	2	1486	1.58412507362664E-05	-4.64435961097479E-06
1.25595092773438	61.2168658454423	1.3104248046875E-06	1.25701904296875	2	1487	1.58412507362664E-05	-4.64435961097479E-06
1.25396728515625	61.2367018453922	1.300048828125E-06	1.25457763671875	2	1488	1.58412507362664E-05	-4.64435961097479E-06
1.25198364257813	61.2565378453421	1.28936767578125E-06	1.25274658203125	2	1489	1.58412507362664E-05	-4.64435961097479E-06
1.25	61.276373845292	1.27899169921875E-06	1.25152587890625	2	1490	1.58412507362664E-05	-4.64435961097479E-06
1.24801635742188	61.2962098452419	1.268310546875E-06	1.2493896484375	2	1491	1.58412507362664E-05	-4.64435961097479E-06
1.24603271484375	61.3160458451919	1.25762939453125E-06	1.24755859375	2	1492	1.58412507362664E-05	-4.64435961097479E-06
1.24404907226563	61.3358818451418	1.246337890625E-06	1.24542236328125	2	1493	1.58412507362664E-05	-4.64435961097479E-06
1.2420654296875	61.3557178450917	1.2359619140625E-06	1.2432861328125	2	1494	1.58412507362664E-05	-4.64435961097479E-06
1.24008178710938	61.3755538450416	1.2255859375E-06	1.241455078125	2	1495	1.58412507362664E-05	-4.64435961097479E-06
1.23809814453125	61.3953898449915	1.21429443359375E-06	1.23931884765625	2	1496	1.58412507362664E-05	-4.64435961097479E-06
1.23611450195313	61.4152258449415	1.2030029296875E-06	1.23748779296875	2	1497	1.58412507362664E-05	-4.64435961097479E-06
1.234130859375	61.4350618448914	1.19171142578125E-06	1.2353515625	2	1498	1.58412507362664E-05	-4.64435961097479E-06
1.23214721679688	61.4548978448413	1.18072509765625E-06	1.23382568359375	2	1499	1.58412507362664E-05	-4.64435961097479E-06
1.23016357421875	61.4747338447912	1.16943359375E-06	1.231689453125	2	1500	1.58412507362664E-05	-4.64435961097479E-06
1.22817993164063	61.4945698447411	1.15814208984375E-06	1.2298583984375	2	1501	1.58412507362664E-05	-4.64435961097479E-06
1.2261962890625	61.5144058446911	1.14654541015625E-06	1.22772216796875	2	1502	1.58412507362664E-05	-4.64435961097479E-06
1.22421264648438	61.534241844641	1.13525390625E-06	1.2249755859375	2	1503	1.58412507362664E-05	-4.64435961097479E-06
1.22222900390625	61.5540778445909	1.12335205078125E-06	1.22344970703125	2	1504	1.58412507362664E-05	-4.64435961097479E-06
1.22024536132813	61.5739138445408	1.1114501953125E-06	1.2213134765625	2	1505	1.58412507362664E-05	-4.64435961097479E-06
1.21826171875	61.5937498444907	1.099853515625E-06	1.21917724609375	2	1506	1.58412507362664E-05	-4.64435961097479E-06
1.21627807617188	61.6135858444406	1.08734130859375E-06	1.2176513671875	2	1507	1.58412507362664E-05	-4.64435961097479E-06
1.21429443359375	61.6334218443906	1.07574462890625E-06	1.2158203125	2	1508	1.58412507362664E-05	-4.64435961097479E-06
1.21231079101563	61.6532578443405	1.0638427734375E-06	1.21368408203125	2	1509	1.58412507362664E-05	-4.64435961097479E-06
1.2103271484375	61.6730938442904	1.0516357421875E-06	1.2115478515625	2	1510	1.58412507362664E-05	-4.64435961097479E-06
1.20834350585938	61.6929298442403	1.0394287109375E-06	1.20941162109375	2	1511	1.58412507362664E-05	-4.64435961097479E-06
1.20635986328125	61.7127658441902	1.02783203125E-06	1.207275390625	2	1512	1.58412507362664E-05	-4.64435961097479E-06
1.20437622070313	61.7326018441402	1.0150146484375E-06	1.2060546875	2	1513	1.58412507362664E-05	-4.64435961097479E-06
1.202392578125	61.7524378440901	1.00311279296875E-06	1.20391845703125	2	1514	1.58412507362664E-05	-4.64435961097479E-06
1.20040893554688	61.77227384404	9.9029541015625E-07	1.20147705078125	2	1515	1.58412507362664E-05	-4.64435961097479E-06
1.19842529296875	61.7921098439899	9.77783203125E-07	1.1993408203125	2	1516	1.58412507362664E-05	-4.64435961097479E-06
1.19644165039063	61.8119458439398	9.649658203125E-07	1.19720458984375	2	1517	1.58412507362664E-05	-4.64435961097479E-06
1.1944580078125	61.8317818438898	9.527587890625E-07	1.19537353515625	2	1518	1.58412507362664E-05	-4.64435961097479E-06
1.19247436523438	61.8516178438397	9.393310546875E-07	1.19293212890625	2	1519	1.58412507362664E-05	-4.64435961097479E-06
1.19049072265625	61.8714538437896	9.271240234375E-07	1.1920166015625	2	1520	1.58412507362664E-05	-4.64435961097479E-06
1.18850708007813	61.8912898437395	9.1461181640625E-07	1.18927001953125	2	1521	1.58412507362664E-05	-4.64435961097479E-06
1.1865234375	61.9111258436894	9.0118408203125E-07	1.187744140625	2	1522	1.58412507362664E-05	-4.64435961097479E-06
1.18453979492188	61.9309618436394	8.88671875E-07	1.18499755859375	2	1523	1.58412507362664E-05	-4.64435961097479E-06
1.18255615234375	61.9507978435893	8.7493896484375E-07	1.1834716796875	2	1524	1.58412507362664E-05	-4.64435961097479E-06
1.18057250976563	61.9706338435392	8.624267578125E-07	1.18194580078125	2	1525	1.58412507362664E-05	-4.64435961097479E-06
1.1785888671875	61.9904698434891	8.49609375E-07	1.1798095703125	2	1526	1.58412507362664E-05	-4.64435961097479E-06
1.17660522460938	62.010305843439	8.367919921875E-07	1.17767333984375	2	1527	1.58412507362664E-05	-4.64435961097479E-06
1.17462158203125	62.0301418433889	8.23974609375E-07	1.17584228515625	2	1528	1.58412507362664E-05	-4.64435961097479E-06
1.17263793945313	62.0499778433389	8.1024169921875E-07	1.17431640625	2	1529	1.58412507362664E-05	-4.64435961097479E-06
1.170654296875	62.0698138432888	7.97119140625E-07	1.1712646484375	2	1530	1.58412507362664E-05	-4.64435961097479E-06
1.16867065429688	62.0896498432387	7.8399658203125E-07	1.16973876953125	2	1531	1.58412507362664E-05	-4.64435961097479E-06
1.16668701171875	62.1094858431886	7.708740234375E-07	1.1676025390625	2	1532	1.58412507362664E-05	-4.64435961097479E-06
1.16470336914063	62.1293218431385	7.58056640625E-07	1.16607666015625	2	1533	1.58412507362664E-05	-4.64435961097479E-06
1.1627197265625	62.1491578430885	7.4493408203125E-07	1.163330078125	2	1534	1.58412507362664E-05	-4.64435961097479E-06
1.16073608398438	62.1689938430384	7.318115234375E-07	1.16180419921875	2	1535	1.58412507362664E-05	-4.64435961097479E-06
1.15875244140625	62.1888298429883	7.1807861328125E-07	1.1590576171875	2	1536	1.58412507362664E-05	-4.64435961097479E-06
1.15676879882813	62.2086658429382	7.0465087890625E-07	1.15814208984375	2	1537	1.58412507362664E-05	-4.64435961097479E-06
1.15478515625	62.2285018428881	6.9183349609375E-07	1.15509033203125	2	1538	1.58412507362664E-05	-4.64435961097479E-06
1.15280151367188	62.2483378428381	6.787109375E-07	1.15386962890625	2	1539	1.58412507362664E-05	-4.64435961097479E-06
1.15081787109375	62.268173842788	6.65283203125E-07	1.15142822265625	2	1540	1.58412507362664E-05	-4.64435961097479E-06
1.14883422851563	62.2880098427379	6.5216064453125E-07	1.15020751953125	2	1541	1.58412507362664E-05	-4.64435961097479E-06
1.1468505859375	62.3078458426878	6.3873291015625E-07	1.14776611328125	2	1542	1.58412507362664E-05	-4.64435961097479E-06
1.14486694335938	62.3276818426377	6.256103515625E-07	1.1456298828125	2	1543	1.58412507362664E-05	-4.64435961097479E-06
1.14288330078125	62.3475178425876	6.1279296875E-07	1.143798828125	2	1544	1.58412507362664E-05	-4.64435961097479E-06
1.14089965820313	62.3673538425376	5.99365234375E-07	1.1419677734375	2	1545	1.58412507362664E-05	-4.64435961097479E-06
1.138916015625	62.3871898424875	5.8624267578125E-07	1.1395263671875	2	1546	1.58412507362664E-05	-4.64435961097479E-06
1.13693237304688	62.4070258424374	5.7281494140625E-07	1.13800048828125	2	1547	1.58412507362664E-05	-4.64435961097479E-06
1.13494873046875	62.4268618423873	5.5938720703125E-07	1.1358642578125	2	1548	1.58412507362664E-05	-4.64435961097479E-06
1.13296508789063	62.4466978423372	5.46875E-07	1.13372802734375	2	1549	1.58412507362664E-05	-4.64435961097479E-06
1.1309814453125	62.4665338422872	5.3314208984375E-07	1.1322021484375	2	1550	1.58412507362664E-05	-4.64435961097479E-06
1.12899780273438	62.4863698422371	5.2093505859375E-07	1.13006591796875	2	1551	1.58412507362664E-05	-4.64435961097479E-06
1.12701416015625	62.506205842187	5.078125E-07	1.12762451171875	2	1552	1.58412507362664E-05	-4.64435961097479E-06
1.12503051757813	62.5260418421369	4.94384765625E-07	1.12579345703125	2	1553	1.58412507362664E-05	-4.64435961097479E-06
1.123046875	62.5458778420868	4.8126220703125E-07	1.12396240234375	2	1554	1.58412507362664E-05	-4.64435961097479E-06
1.12106323242188	62.5657138420368	4.6844482421875E-07	1.12152099609375	2	1555	1.58412507362664E-05	-4.64435961097479E-06
1.11907958984375	62.5855498419867	4.54742431640625E-07	1.12030029296875	2	1556	1.58412507362664E-05	-4.64435961097479E-06
1.11709594726563	62.6053858419366	4.420166015625E-07	1.11785888671875	2	1557	1.58412507362664E-05	-4.64435961097479E-06
1.1151123046875	62.6252218418865	4.27825927734375E-07	1.1163330078125	2	1558	1.58412507362664E-05	-4.64435961097479E-06
1.11312866210938	62.6450578418364	4.146728515625E-07	1.1138916015625	2	1559	1.58412507362664E-05	-4.64435961097479E-06
1.11114501953125	62.6648938417864	4.01580810546875E-07	1.11114501953125	2	1560	1.58412507362664E-05	-4.64435961097479E-06
1.10916137695313	62.6847298417363	3.88427734375E-07	1.1102294921875	2	1561	1.58412507362664E-05	-4.64435961097479E-06
1.107177734375	62.7045658416862	3.75213623046875E-07	1.10809326171875	2	1562	1.58412507362664E-05	-4.64435961097479E-06
1.10519409179688	62.7244018416361	3.62396240234375E-07	1.10626220703125	2	1563	1.58412507362664E-05	-4.64435961097479E-06
1.10321044921875	62.744237841586	3.4942626953125E-07	1.10443115234375	2	1564	1.58412507362664E-05	-4.64435961097479E-06
1.10122680664063	62.7640738415359	3.36273193359375E-07	1.10198974609375	2	1565	1.58412507362664E-05	-4.64435961097479E-06
1.0992431640625	62.7839098414859	3.23028564453125E-07	1.10015869140625	2	1566	1.58412507362664E-05	-4.64435961097479E-06
1.09725952148438	62.8037458414358	3.09967041015625E-07	1.0980224609375	2	1567	1.58412507362664E-05	-4.64435961097479E-06
1.09527587890625	62.8235818413857	2.96844482421875E-07	1.09649658203125	2	1568	1.58412507362664E-05	-4.64435961097479E-06
1.09329223632813	62.8434178413356	2.8302001953125E-07	1.09405517578125	2	1569	1.58412507362664E-05	-4.64435961097479E-06
1.09130859375	62.8632538412855	2.7020263671875E-07	1.092529296875	2	1570	1.58412507362664E-05	-4.64435961097479E-06
1.08932495117188	62.8830898412355	2.572021484375E-07	1.0906982421875	2	1571	1.58412507362664E-05	-4.64435961097479E-06
1.08734130859375	62.9029258411854	2.4395751953125E-07	1.08917236328125	2	1572	1.58412507362664E-05	-4.64435961097479E-06
1.08535766601563	62.9227618411353	2.3089599609375E-07	1.08551025390625	2	1573	1.58412507362664E-05	-4.64435961097479E-06
1.0833740234375	62.9425978410852	2.18170166015625E-07	1.085205078125	2	1574	1.58412507362664E-05	-4.64435961097479E-06
1.08139038085938	62.9624338410351	2.04376220703125E-07	1.08245849609375	2	1575	1.58412507362664E-05	-4.64435961097479E-06
1.07940673828125	62.9822698409851	1.91314697265625E-07	1.080322265625	2	1576	1.58412507362664E-05	-4.64435961097479E-06
1.07742309570313	63.002105840935	1.78131103515625E-07	1.0791015625	2	1577	1.58412507362664E-05	-4.64435961097479E-06
1.075439453125	63.0219418408849	1.646728515625E-07	1.07635498046875	2	1578	1.58412507362664E-05	-4.64435961097479E-06
1.07345581054688	63.0417778408348	1.5093994140625E-07	1.07421875	2	1579	1.58412507362664E-05	-4.64435961097479E-06
1.07147216796875	63.0616138407847	1.3787841796875E-07	1.0723876953125	2	1580	1.58412507362664E-05	-4.64435961097479E-06
1.06948852539063	63.0814498407346	1.2445068359375E-07	1.070556640625	2	1581	1.58412507362664E-05	-4.64435961097479E-06
1.0675048828125	63.1012858406846	1.1151123046875E-07	1.0687255859375	2	1582	1.58412507362664E-05	-4.64435961097479E-06
1.06552124023438	63.1211218406345	9.759521484375E-08	1.06658935546875	2	1583	1.58412507362664E-05	-4.64435961097479E-06
1.06353759765625	63.1409578405844	8.4228515625E-08	1.06475830078125	2	1584	1.58412507362664E-05	-4.64435961097479E-06
1.06155395507813	63.1607938405343	7.1380615234375E-08	1.06231689453125	2	1585	1.58412507362664E-05	-4.64435961097479E-06
1.0595703125	63.1806298404842	5.7342529296875E-08	1.060791015625	2	1586	1.58412507362664E-05	-4.64435961097479E-06
1.05758666992188	63.2004658404342	4.3548583984375E-08	1.05865478515625	2	1587	1.58412507362664E-05	-4.64435961097479E-06
1.05560302734375	63.2203018403841	3.06488037109375E-08	1.05712890625	2	1588	1.58412507362664E-05	-4.64435961097479E-06
1.05361938476563	63.240137840334	1.76116943359375E-08	1.05499267578125	2	1589	1.58412507362664E-05	-4.64435961097479E-06
1.0516357421875	63.2599738402839	4.6051025390625E-09	1.05255126953125	2	1590	1.58412507362664E-05	-4.64435961097479E-06
1.04965209960938	63.2798098402338	-8.5968017578125E-09	1.0504150390625	2	1591	1.58412507362664E-05	-4.64435961097479E-06
1.04766845703125	63.2996458401838	-2.176513671875E-08	1.04888916015625	2	1592	1.58412507362664E-05	-4.64435961097479E-06
1.04568481445313	63.3194818401337	-3.5260009765625E-08	1.04705810546875	2	1593	1.58412507362664E-05	-4.64435961097479E-06
1.043701171875	63.3393178400836	-4.852294921875E-08	1.0455322265625	2	1594	1.58412507362664E-05	-4.64435961097479E-06
1.04171752929688	63.3591538400335	-6.11572265625E-08	1.04278564453125	2	1595	1.58412507362664E-05	-4.64435961097479E-06
1.03973388671875	63.3789898399834	-7.421875E-08	1.04095458984375	2	1596	1.58412507362664E-05	-4.64435961097479E-06
1.03775024414063	63.3988258399334	-8.67919921875E-08	1.03851318359375	2	1597	1.58412507362664E-05	-4.64435961097479E-06
1.0357666015625	63.4186618398833	-9.94873046875E-08	1.03668212890625	2	1598	1.58412507362664E-05	-4.64435961097479E-06
1.03378295898438	63.4384978398332	-1.1199951171875E-07	1.03485107421875	2	1599	1.58412507362664E-05	-4.64435961097479E-06
1.03179931640625	63.4583338397831	-1.246337890625E-07	1.03302001953125	2	1600	1.58412507362664E-05	-4.64435961097479E-06
1.02981567382813	63.478169839733	-1.36993408203125E-07	1.0308837890625	2	1601	1.58412507362664E-05	-4.64435961097479E-06
1.02783203125	63.4980058396829	-1.49261474609375E-07	1.02874755859375	2	1602	1.58412507362664E-05	-4.64435961097479E-06
1.02584838867188	63.5178418396329	-1.61773681640625E-07	1.02691650390625	2	1603	1.58412507362664E-05	-4.64435961097479E-06
1.02386474609375	63.5376778395828	-1.73065185546875E-07	1.0247802734375	2	1604	1.58412507362664E-05	-4.64435961097479E-06
1.02188110351563	63.5575138395327	-1.8505859375E-07	1.02294921875	2	1605	1.58412507362664E-05	-4.64435961097479E-06
1.0198974609375	63.5773498394826	-1.96075439453125E-07	1.02081298828125	2	1606	1.58412507362664E-05	-4.64435961097479E-06
1.01791381835938	63.5971858394325	-2.0745849609375E-07	1.01837158203125	2	1607	1.58412507362664E-05	-4.64435961097479E-06
1.01593017578125	63.6170218393825	-2.1893310546875E-07	1.01715087890625	2	1608	1.58412507362664E-05	-4.64435961097479E-06
1.01394653320313	63.6368578393324	-2.29461669921875E-07	1.01531982421875	2	1609	1.58412507362664E-05	-4.64435961097479E-06
1.011962890625	63.6566938392823	-2.392578125E-07	1.01318359375	2	1610	1.58412507362664E-05	-4.64435961097479E-06
1.00997924804688	63.6765298392322	-2.50213623046875E-07	1.01165771484375	2	1611	1.58412507362664E-05	-4.64435961097479E-06
1.00799560546875	63.6963658391821	-2.60406494140625E-07	1.00921630859375	2	1612	1.58412507362664E-05	-4.64435961097479E-06
1.00601196289063	63.7162018391321	-2.70599365234375E-07	1.00738525390625	2	1613	1.58412507362664E-05	-4.64435961097479E-06
1.0040283203125	63.736037839082	-2.80181884765625E-07	1.00555419921875	2	1614	1.58412507362664E-05	-4.64435961097479E-06
1.00204467773438	63.7558738390319	-2.899169921875E-07	1.00372314453125	2	1615	1.58412507362664E-05	-4.64435961097479E-06
1.00006103515625	63.7757098389818	-2.9925537109375E-07	1.0015869140625	2	1616	1.58412507362664E-05	-4.64435961097479E-06
