##TITLE=Spectrum
##JCAMP-DX=5.00 $$ chemotion-converter-app (1.6.2)
##DATA TYPE=THERMOGRAVIMETRIC ANALYSIS
##DATA CLASS=XYPOINTS
##ORIGIN=
##OWNER=
##XUNITS=DEGREES CELSIUS
##YUNITS=Weight %
##FIRSTX=29.61
##LASTX=29.29
##MINX=29.16
##MAXX=29.61
##MINY=99.99
##MAXY=100.0
##NPOINTS=1800
##FIRSTY=100.0
##XUNITS=DEGREES CELSIUS
##YUNITS=Weight %
##XYPOINTS=(XY..XY)
29.61, 100.0
29.61, 100.0
29.61, 100.0
29.61, 100.0
29.61, 100.0
29.61, 100.0
29.61, 100.0
29.61, 100.0
29.61, 100.0
29.61, 100.0
29.61, 100.0
29.61, 100.0
29.61, 100.0
29.61, 100.0
29.61, 100.0
29.61, 100.0
29.6, 100.0
29.6, 100.0
29.6, 100.0
29.6, 100.0
29.6, 100.0
29.6, 100.0
29.6, 100.0
29.6, 100.0
29.6, 100.0
29.6, 100.0
29.6, 100.0
29.6, 100.0
29.6, 100.0
29.6, 100.0
29.6, 100.0
29.6, 100.0
29.6, 100.0
29.6, 100.0
29.6, 100.0
29.6, 100.0
29.6, 100.0
29.6, 100.0
29.6, 100.0
29.6, 100.0
29.6, 100.0
29.59, 100.0
29.59, 100.0
29.59, 100.0
29.59, 100.0
29.59, 100.0
29.59, 100.0
29.59, 100.0
29.59, 100.0
29.59, 100.0
29.59, 100.0
29.59, 100.0
29.59, 100.0
29.59, 100.0
29.59, 100.0
29.59, 100.0
29.59, 100.0
29.59, 100.0
29.59, 100.0
29.59, 100.0
29.59, 100.0
29.59, 100.0
29.59, 100.0
29.59, 100.0
29.59, 100.0
29.58, 100.0
29.58, 100.0
29.58, 100.0
29.58, 100.0
29.58, 100.0
29.58, 100.0
29.58, 100.0
29.58, 100.0
29.58, 100.0
29.58, 100.0
29.58, 100.0
29.58, 100.0
29.58, 100.0
29.58, 100.0
29.58, 100.0
29.58, 100.0
29.58, 100.0
29.58, 100.0
29.58, 100.0
29.58, 100.0
29.58, 100.0
29.58, 100.0
29.58, 100.0
29.57, 100.0
29.57, 100.0
29.57, 100.0
29.57, 100.0
29.57, 100.0
29.57, 100.0
29.57, 100.0
29.57, 100.0
29.57, 100.0
29.57, 100.0
29.57, 100.0
29.57, 100.0
29.57, 100.0
29.57, 100.0
29.57, 100.0
29.57, 100.0
29.57, 100.0
29.57, 100.0
29.57, 100.0
29.57, 100.0
29.57, 100.0
29.57, 100.0
29.57, 100.0
29.57, 100.0
29.56, 100.0
29.56, 100.0
29.56, 100.0
29.56, 100.0
29.56, 100.0
29.56, 100.0
29.56, 100.0
29.56, 100.0
29.56, 100.0
29.56, 100.0
29.56, 100.0
29.56, 100.0
29.56, 100.0
29.56, 100.0
29.56, 100.0
29.56, 100.0
29.56, 100.0
29.56, 100.0
29.56, 100.0
29.56, 100.0
29.56, 100.0
29.56, 100.0
29.56, 100.0
29.56, 100.0
29.55, 100.0
29.55, 100.0
29.55, 100.0
29.55, 100.0
29.55, 100.0
29.55, 100.0
29.55, 100.0
29.55, 100.0
29.55, 100.0
29.55, 100.0
29.55, 100.0
29.55, 100.0
29.55, 100.0
29.55, 100.0
29.55, 100.0
29.55, 100.0
29.55, 100.0
29.55, 100.0
29.55, 100.0
29.55, 100.0
29.55, 100.0
29.55, 100.0
29.55, 100.0
29.55, 100.0
29.55, 100.0
29.54, 100.0
29.54, 100.0
29.54, 100.0
29.54, 100.0
29.54, 100.0
29.54, 100.0
29.54, 100.0
29.54, 100.0
29.54, 100.0
29.54, 100.0
29.54, 100.0
29.54, 100.0
29.54, 100.0
29.54, 100.0
29.54, 100.0
29.54, 100.0
29.54, 100.0
29.54, 100.0
29.54, 100.0
29.54, 100.0
29.54, 100.0
29.54, 100.0
29.54, 100.0
29.54, 100.0
29.54, 100.0
29.53, 100.0
29.53, 100.0
29.53, 100.0
29.53, 100.0
29.53, 100.0
29.53, 100.0
29.53, 100.0
29.53, 100.0
29.53, 100.0
29.53, 100.0
29.53, 100.0
29.53, 100.0
29.53, 100.0
29.53, 100.0
29.53, 100.0
29.53, 100.0
29.53, 100.0
29.53, 100.0
29.53, 100.0
29.53, 100.0
29.53, 100.0
29.53, 100.0
29.53, 100.0
29.53, 100.0
29.52, 100.0
29.52, 100.0
29.52, 100.0
29.52, 100.0
29.52, 100.0
29.52, 100.0
29.52, 100.0
29.52, 100.0
29.52, 100.0
29.52, 100.0
29.52, 100.0
29.52, 100.0
29.52, 100.0
29.52, 100.0
29.52, 100.0
29.52, 100.0
29.52, 100.0
29.52, 100.0
29.52, 100.0
29.52, 100.0
29.52, 100.0
29.52, 100.0
29.52, 100.0
29.52, 100.0
29.52, 100.0
29.51, 100.0
29.51, 100.0
29.51, 100.0
29.51, 100.0
29.51, 100.0
29.51, 100.0
29.51, 100.0
29.51, 100.0
29.51, 100.0
29.51, 100.0
29.51, 100.0
29.51, 100.0
29.51, 100.0
29.51, 100.0
29.51, 100.0
29.51, 100.0
29.51, 100.0
29.51, 100.0
29.51, 100.0
29.51, 100.0
29.51, 100.0
29.51, 100.0
29.51, 100.0
29.51, 100.0
29.51, 100.0
29.5, 100.0
29.5, 100.0
29.5, 100.0
29.5, 100.0
29.5, 100.0
29.5, 100.0
29.5, 100.0
29.5, 100.0
29.5, 100.0
29.5, 100.0
29.5, 100.0
29.5, 100.0
29.5, 100.0
29.5, 100.0
29.5, 100.0
29.5, 100.0
29.5, 100.0
29.5, 100.0
29.5, 100.0
29.5, 100.0
29.5, 100.0
29.5, 100.0
29.5, 100.0
29.5, 100.0
29.49, 100.0
29.49, 100.0
29.49, 100.0
29.49, 100.0
29.49, 100.0
29.49, 100.0
29.49, 100.0
29.49, 100.0
29.49, 100.0
29.49, 100.0
29.49, 100.0
29.49, 100.0
29.49, 100.0
29.49, 100.0
29.49, 100.0
29.49, 100.0
29.49, 100.0
29.49, 100.0
29.49, 100.0
29.49, 100.0
29.49, 100.0
29.49, 100.0
29.49, 100.0
29.49, 100.0
29.48, 100.0
29.48, 100.0
29.48, 100.0
29.48, 100.0
29.48, 100.0
29.48, 100.0
29.48, 100.0
29.48, 100.0
29.48, 100.0
29.48, 100.0
29.48, 100.0
29.48, 100.0
29.48, 100.0
29.48, 100.0
29.48, 100.0
29.48, 100.0
29.48, 100.0
29.48, 100.0
29.48, 100.0
29.48, 100.0
29.48, 100.0
29.48, 100.0
29.48, 100.0
29.47, 100.0
29.47, 100.0
29.47, 100.0
29.47, 100.0
29.47, 100.0
29.47, 100.0
29.47, 100.0
29.47, 100.0
29.47, 100.0
29.47, 100.0
29.47, 100.0
29.47, 100.0
29.47, 100.0
29.47, 100.0
29.47, 100.0
29.47, 100.0
29.47, 100.0
29.47, 100.0
29.47, 100.0
29.47, 100.0
29.47, 100.0
29.47, 100.0
29.47, 100.0
29.47, 100.0
29.46, 100.0
29.46, 100.0
29.46, 100.0
29.46, 100.0
29.46, 100.0
29.46, 100.0
29.46, 100.0
29.46, 100.0
29.46, 100.0
29.46, 100.0
29.46, 100.0
29.46, 100.0
29.46, 100.0
29.46, 100.0
29.46, 100.0
29.46, 100.0
29.46, 100.0
29.46, 100.0
29.46, 100.0
29.46, 100.0
29.46, 100.0
29.46, 100.0
29.46, 100.0
29.45, 100.0
29.45, 100.0
29.45, 100.0
29.45, 100.0
29.45, 100.0
29.45, 100.0
29.45, 100.0
29.45, 100.0
29.45, 100.0
29.45, 100.0
29.45, 100.0
29.45, 100.0
29.45, 100.0
29.45, 100.0
29.45, 100.0
29.45, 100.0
29.45, 100.0
29.45, 100.0
29.45, 100.0
29.45, 100.0
29.45, 100.0
29.45, 100.0
29.45, 100.0
29.45, 100.0
29.44, 100.0
29.44, 100.0
29.44, 100.0
29.44, 100.0
29.44, 100.0
29.44, 100.0
29.44, 100.0
29.44, 100.0
29.44, 100.0
29.44, 100.0
29.44, 100.0
29.44, 100.0
29.44, 100.0
29.44, 100.0
29.44, 100.0
29.44, 100.0
29.44, 100.0
29.44, 100.0
29.44, 100.0
29.44, 100.0
29.44, 100.0
29.44, 100.0
29.44, 100.0
29.44, 100.0
29.43, 100.0
29.43, 100.0
29.43, 100.0
29.43, 100.0
29.43, 100.0
29.43, 100.0
29.43, 100.0
29.43, 100.0
29.43, 100.0
29.43, 100.0
29.43, 100.0
29.43, 100.0
29.43, 100.0
29.43, 100.0
29.43, 100.0
29.43, 100.0
29.43, 100.0
29.43, 100.0
29.43, 100.0
29.43, 100.0
29.43, 100.0
29.43, 100.0
29.43, 100.0
29.43, 100.0
29.42, 100.0
29.42, 100.0
29.42, 100.0
29.42, 100.0
29.42, 100.0
29.42, 100.0
29.42, 100.0
29.42, 100.0
29.42, 100.0
29.42, 100.0
29.42, 100.0
29.42, 100.0
29.42, 100.0
29.42, 100.0
29.42, 100.0
29.42, 100.0
29.42, 100.0
29.42, 100.0
29.42, 100.0
29.42, 100.0
29.42, 100.0
29.42, 100.0
29.42, 100.0
29.42, 100.0
29.42, 100.0
29.42, 100.0
29.41, 100.0
29.41, 100.0
29.41, 100.0
29.41, 100.0
29.41, 100.0
29.41, 100.0
29.41, 100.0
29.41, 100.0
29.41, 100.0
29.41, 100.0
29.41, 100.0
29.41, 100.0
29.41, 100.0
29.41, 100.0
29.41, 100.0
29.41, 100.0
29.41, 100.0
29.41, 100.0
29.41, 100.0
29.41, 100.0
29.41, 100.0
29.41, 100.0
29.41, 100.0
29.41, 100.0
29.41, 100.0
29.4, 100.0
29.4, 100.0
29.4, 100.0
29.4, 100.0
29.4, 100.0
29.4, 100.0
29.4, 100.0
29.4, 100.0
29.4, 100.0
29.4, 100.0
29.4, 100.0
29.4, 100.0
29.4, 100.0
29.4, 100.0
29.4, 100.0
29.4, 100.0
29.4, 100.0
29.4, 100.0
29.4, 100.0
29.4, 100.0
29.4, 100.0
29.4, 100.0
29.4, 100.0
29.4, 100.0
29.4, 100.0
29.39, 100.0
29.39, 100.0
29.39, 100.0
29.39, 100.0
29.39, 100.0
29.39, 100.0
29.39, 100.0
29.39, 100.0
29.39, 100.0
29.39, 100.0
29.39, 100.0
29.39, 100.0
29.39, 100.0
29.39, 100.0
29.39, 100.0
29.39, 100.0
29.39, 100.0
29.39, 100.0
29.39, 100.0
29.39, 100.0
29.39, 100.0
29.39, 100.0
29.39, 100.0
29.39, 100.0
29.39, 100.0
29.39, 100.0
29.38, 100.0
29.38, 100.0
29.38, 100.0
29.38, 100.0
29.38, 100.0
29.38, 100.0
29.38, 100.0
29.38, 100.0
29.38, 100.0
29.38, 100.0
29.38, 100.0
29.38, 100.0
29.38, 100.0
29.38, 100.0
29.38, 100.0
29.38, 100.0
29.38, 100.0
29.38, 100.0
29.38, 100.0
29.38, 100.0
29.38, 100.0
29.38, 100.0
29.38, 100.0
29.38, 100.0
29.38, 100.0
29.38, 100.0
29.37, 100.0
29.37, 100.0
29.37, 100.0
29.37, 100.0
29.37, 100.0
29.37, 100.0
29.37, 100.0
29.37, 100.0
29.37, 100.0
29.37, 100.0
29.37, 100.0
29.37, 100.0
29.37, 100.0
29.37, 100.0
29.37, 100.0
29.37, 100.0
29.37, 100.0
29.37, 100.0
29.37, 100.0
29.37, 100.0
29.37, 100.0
29.37, 100.0
29.37, 100.0
29.37, 100.0
29.37, 100.0
29.36, 100.0
29.36, 100.0
29.36, 100.0
29.36, 100.0
29.36, 100.0
29.36, 100.0
29.36, 100.0
29.36, 100.0
29.36, 100.0
29.36, 100.0
29.36, 100.0
29.36, 100.0
29.36, 100.0
29.36, 100.0
29.36, 100.0
29.36, 100.0
29.36, 100.0
29.36, 100.0
29.36, 100.0
29.36, 100.0
29.36, 100.0
29.36, 100.0
29.36, 100.0
29.36, 100.0
29.36, 100.0
29.36, 100.0
29.35, 100.0
29.35, 100.0
29.35, 100.0
29.35, 100.0
29.35, 100.0
29.35, 100.0
29.35, 100.0
29.35, 100.0
29.35, 100.0
29.35, 100.0
29.35, 100.0
29.35, 100.0
29.35, 100.0
29.35, 100.0
29.35, 100.0
29.35, 100.0
29.35, 100.0
29.35, 100.0
29.35, 100.0
29.35, 100.0
29.35, 100.0
29.35, 100.0
29.35, 100.0
29.35, 100.0
29.34, 100.0
29.34, 100.0
29.34, 100.0
29.34, 100.0
29.34, 100.0
29.34, 100.0
29.34, 100.0
29.34, 100.0
29.34, 100.0
29.34, 100.0
29.34, 100.0
29.34, 100.0
29.34, 100.0
29.34, 100.0
29.34, 100.0
29.34, 100.0
29.34, 100.0
29.34, 100.0
29.34, 100.0
29.34, 100.0
29.34, 100.0
29.34, 100.0
29.34, 100.0
29.34, 100.0
29.33, 100.0
29.33, 100.0
29.33, 100.0
29.33, 100.0
29.33, 100.0
29.33, 100.0
29.33, 100.0
29.33, 100.0
29.33, 100.0
29.33, 100.0
29.33, 100.0
29.33, 100.0
29.33, 100.0
29.33, 100.0
29.33, 100.0
29.33, 100.0
29.33, 100.0
29.33, 100.0
29.33, 100.0
29.33, 100.0
29.33, 100.0
29.33, 100.0
29.32, 100.0
29.32, 100.0
29.32, 100.0
29.32, 100.0
29.32, 100.0
29.32, 100.0
29.32, 100.0
29.32, 100.0
29.32, 100.0
29.32, 100.0
29.32, 100.0
29.32, 100.0
29.32, 100.0
29.32, 100.0
29.32, 100.0
29.32, 100.0
29.32, 100.0
29.32, 100.0
29.32, 100.0
29.32, 100.0
29.32, 100.0
29.32, 100.0
29.31, 100.0
29.31, 100.0
29.31, 100.0
29.31, 100.0
29.31, 100.0
29.31, 100.0
29.31, 100.0
29.31, 100.0
29.31, 100.0
29.31, 100.0
29.31, 100.0
29.31, 100.0
29.31, 100.0
29.31, 100.0
29.31, 100.0
29.31, 100.0
29.31, 100.0
29.31, 100.0
29.31, 100.0
29.31, 100.0
29.31, 100.0
29.3, 100.0
29.3, 100.0
29.3, 100.0
29.3, 100.0
29.3, 100.0
29.3, 100.0
29.3, 100.0
29.3, 100.0
29.3, 100.0
29.3, 99.99
29.3, 99.99
29.3, 99.99
29.3, 99.99
29.3, 99.99
29.3, 99.99
29.3, 99.99
29.3, 99.99
29.3, 99.99
29.3, 99.99
29.3, 99.99
29.3, 99.99
29.3, 99.99
29.29, 99.99
29.29, 99.99
29.29, 99.99
29.29, 99.99
29.29, 99.99
29.29, 99.99
29.29, 99.99
29.29, 99.99
29.29, 99.99
29.29, 99.99
29.29, 99.99
29.29, 99.99
29.29, 99.99
29.29, 99.99
29.29, 99.99
29.29, 99.99
29.29, 99.99
29.29, 99.99
29.29, 99.99
29.29, 99.99
29.29, 99.99
29.29, 99.99
29.28, 99.99
29.28, 99.99
29.28, 99.99
29.28, 99.99
29.28, 99.99
29.28, 99.99
29.28, 99.99
29.28, 99.99
29.28, 99.99
29.28, 99.99
29.28, 99.99
29.28, 99.99
29.28, 99.99
29.28, 99.99
29.28, 99.99
29.28, 99.99
29.28, 99.99
29.28, 99.99
29.28, 99.99
29.28, 99.99
29.28, 99.99
29.28, 99.99
29.27, 99.99
29.27, 99.99
29.27, 99.99
29.27, 99.99
29.27, 99.99
29.27, 99.99
29.27, 99.99
29.27, 99.99
29.27, 99.99
29.27, 99.99
29.27, 99.99
29.27, 99.99
29.27, 99.99
29.27, 99.99
29.27, 99.99
29.27, 99.99
29.27, 99.99
29.27, 99.99
29.27, 99.99
29.27, 99.99
29.27, 99.99
29.27, 99.99
29.27, 99.99
29.26, 99.99
29.26, 99.99
29.26, 99.99
29.26, 99.99
29.26, 99.99
29.26, 99.99
29.26, 99.99
29.26, 99.99
29.26, 99.99
29.26, 99.99
29.26, 99.99
29.26, 99.99
29.26, 99.99
29.26, 99.99
29.26, 99.99
29.26, 99.99
29.26, 99.99
29.26, 99.99
29.26, 99.99
29.26, 99.99
29.26, 99.99
29.26, 99.99
29.26, 99.99
29.25, 99.99
29.25, 99.99
29.25, 99.99
29.25, 99.99
29.25, 99.99
29.25, 99.99
29.25, 99.99
29.25, 99.99
29.25, 99.99
29.25, 99.99
29.25, 99.99
29.25, 99.99
29.25, 99.99
29.25, 99.99
29.25, 99.99
29.25, 99.99
29.25, 99.99
29.25, 99.99
29.25, 99.99
29.25, 99.99
29.25, 99.99
29.25, 99.99
29.25, 99.99
29.25, 99.99
29.24, 99.99
29.24, 99.99
29.24, 99.99
29.24, 99.99
29.24, 99.99
29.24, 99.99
29.24, 99.99
29.24, 99.99
29.24, 99.99
29.24, 99.99
29.24, 99.99
29.24, 99.99
29.24, 99.99
29.24, 99.99
29.24, 99.99
29.24, 99.99
29.24, 99.99
29.24, 99.99
29.24, 99.99
29.24, 99.99
29.24, 99.99
29.24, 99.99
29.24, 99.99
29.24, 99.99
29.24, 99.99
29.23, 99.99
29.23, 99.99
29.23, 99.99
29.23, 99.99
29.23, 99.99
29.23, 99.99
29.23, 99.99
29.23, 99.99
29.23, 99.99
29.23, 99.99
29.23, 99.99
29.23, 99.99
29.23, 99.99
29.23, 99.99
29.23, 99.99
29.23, 99.99
29.23, 99.99
29.23, 99.99
29.23, 99.99
29.23, 99.99
29.23, 99.99
29.23, 99.99
29.23, 99.99
29.23, 99.99
29.23, 99.99
29.23, 99.99
29.22, 99.99
29.22, 99.99
29.22, 99.99
29.22, 99.99
29.22, 99.99
29.22, 99.99
29.22, 99.99
29.22, 99.99
29.22, 99.99
29.22, 99.99
29.22, 99.99
29.22, 99.99
29.22, 99.99
29.22, 99.99
29.22, 99.99
29.22, 99.99
29.22, 99.99
29.22, 99.99
29.22, 99.99
29.22, 99.99
29.22, 99.99
29.22, 99.99
29.22, 99.99
29.22, 99.99
29.22, 99.99
29.22, 99.99
29.22, 99.99
29.21, 99.99
29.21, 99.99
29.21, 99.99
29.21, 99.99
29.21, 99.99
29.21, 99.99
29.21, 99.99
29.21, 99.99
29.21, 99.99
29.21, 99.99
29.21, 99.99
29.21, 99.99
29.21, 99.99
29.21, 99.99
29.21, 99.99
29.21, 99.99
29.21, 99.99
29.21, 99.99
29.21, 99.99
29.21, 99.99
29.21, 99.99
29.21, 99.99
29.21, 99.99
29.21, 99.99
29.21, 99.99
29.21, 99.99
29.21, 99.99
29.21, 99.99
29.21, 99.99
29.2, 99.99
29.2, 99.99
29.2, 99.99
29.2, 99.99
29.2, 99.99
29.2, 99.99
29.2, 99.99
29.2, 99.99
29.2, 99.99
29.2, 99.99
29.2, 99.99
29.2, 99.99
29.2, 99.99
29.2, 99.99
29.2, 99.99
29.2, 99.99
29.2, 99.99
29.2, 99.99
29.2, 99.99
29.2, 99.99
29.2, 99.99
29.2, 99.99
29.2, 99.99
29.2, 99.99
29.2, 99.99
29.2, 99.99
29.2, 99.99
29.2, 99.99
29.2, 99.99
29.19, 99.99
29.19, 99.99
29.19, 99.99
29.19, 99.99
29.19, 99.99
29.19, 99.99
29.19, 99.99
29.19, 99.99
29.19, 99.99
29.19, 99.99
29.19, 99.99
29.19, 99.99
29.19, 99.99
29.19, 99.99
29.19, 99.99
29.19, 99.99
29.19, 99.99
29.19, 99.99
29.19, 99.99
29.19, 99.99
29.19, 99.99
29.19, 99.99
29.19, 99.99
29.19, 99.99
29.19, 99.99
29.19, 99.99
29.19, 99.99
29.19, 99.99
29.19, 99.99
29.19, 99.99
29.18, 99.99
29.18, 99.99
29.18, 99.99
29.18, 99.99
29.18, 99.99
29.18, 99.99
29.18, 99.99
29.18, 99.99
29.18, 99.99
29.18, 99.99
29.18, 99.99
29.18, 99.99
29.18, 99.99
29.18, 99.99
29.18, 99.99
29.18, 99.99
29.18, 99.99
29.18, 99.99
29.18, 99.99
29.18, 99.99
29.18, 99.99
29.18, 99.99
29.18, 99.99
29.18, 99.99
29.18, 99.99
29.18, 99.99
29.18, 99.99
29.18, 99.99
29.18, 99.99
29.18, 99.99
29.18, 99.99
29.18, 99.99
29.18, 99.99
29.18, 99.99
29.18, 99.99
29.18, 99.99
29.18, 99.99
29.18, 99.99
29.17, 99.99
29.17, 99.99
29.17, 99.99
29.17, 99.99
29.17, 99.99
29.17, 99.99
29.17, 99.99
29.17, 99.99
29.17, 99.99
29.17, 99.99
29.17, 99.99
29.17, 99.99
29.17, 99.99
29.17, 99.99
29.17, 99.99
29.17, 99.99
29.17, 99.99
29.17, 99.99
29.17, 99.99
29.17, 99.99
29.17, 99.99
29.17, 99.99
29.17, 99.99
29.17, 99.99
29.17, 99.99
29.17, 99.99
29.17, 99.99
29.17, 99.99
29.17, 99.99
29.17, 99.99
29.17, 99.99
29.17, 99.99
29.17, 99.99
29.17, 99.99
29.17, 99.99
29.17, 99.99
29.17, 99.99
29.17, 99.99
29.17, 99.99
29.17, 99.99
29.17, 99.99
29.17, 99.99
29.17, 99.99
29.17, 99.99
29.17, 99.99
29.17, 99.99
29.17, 99.99
29.17, 99.99
29.17, 99.99
29.17, 99.99
29.17, 99.99
29.17, 99.99
29.17, 99.99
29.17, 99.99
29.17, 99.99
29.17, 99.99
29.17, 99.99
29.17, 99.99
29.17, 99.99
29.17, 99.99
29.16, 99.99
29.16, 99.99
29.16, 99.99
29.16, 99.99
29.16, 99.99
29.16, 99.99
29.16, 99.99
29.16, 99.99
29.16, 99.99
29.16, 99.99
29.16, 99.99
29.16, 99.99
29.16, 99.99
29.16, 99.99
29.16, 99.99
29.16, 99.99
29.16, 99.99
29.16, 99.99
29.16, 99.99
29.16, 99.99
29.16, 99.99
29.16, 99.99
29.16, 99.99
29.16, 99.99
29.16, 99.99
29.16, 99.99
29.16, 99.99
29.16, 99.99
29.16, 99.99
29.16, 99.99
29.16, 99.99
29.16, 99.99
29.16, 99.99
29.16, 99.99
29.16, 99.99
29.16, 99.99
29.16, 99.99
29.16, 99.99
29.16, 99.99
29.16, 99.99
29.16, 99.99
29.16, 99.99
29.16, 99.99
29.16, 99.99
29.16, 99.99
29.16, 99.99
29.16, 99.99
29.16, 99.99
29.16, 99.99
29.16, 99.99
29.16, 99.99
29.16, 99.99
29.16, 99.99
29.16, 99.99
29.16, 99.99
29.16, 99.99
29.16, 99.99
29.16, 99.99
29.16, 99.99
29.16, 99.99
29.16, 99.99
29.16, 99.99
29.16, 99.99
29.16, 99.99
29.16, 99.99
29.16, 99.99
29.16, 99.99
29.16, 99.99
29.16, 99.99
29.16, 99.99
29.16, 99.99
29.16, 99.99
29.16, 99.99
29.16, 99.99
29.16, 99.99
29.16, 99.99
29.16, 99.99
29.16, 99.99
29.16, 99.99
29.16, 99.99
29.16, 99.99
29.16, 99.99
29.16, 99.99
29.16, 99.99
29.16, 99.99
29.16, 99.99
29.16, 99.99
29.16, 99.99
29.16, 99.99
29.16, 99.99
29.16, 99.99
29.16, 99.99
29.16, 99.99
29.16, 99.99
29.16, 99.99
29.16, 99.99
29.16, 99.99
29.16, 99.99
29.16, 99.99
29.16, 99.99
29.16, 99.99
29.16, 99.99
29.16, 99.99
29.16, 99.99
29.16, 99.99
29.16, 99.99
29.16, 99.99
29.16, 99.99
29.16, 99.99
29.16, 99.99
29.16, 99.99
29.16, 99.99
29.16, 99.99
29.16, 99.99
29.16, 99.99
29.16, 99.99
29.16, 99.99
29.16, 99.99
29.16, 99.99
29.16, 99.99
29.16, 99.99
29.16, 99.99
29.16, 99.99
29.16, 99.99
29.16, 99.99
29.16, 99.99
29.16, 99.99
29.16, 99.99
29.16, 99.99
29.16, 99.99
29.16, 99.99
29.16, 99.99
29.16, 99.99
29.16, 99.99
29.16, 99.99
29.16, 99.99
29.16, 99.99
29.16, 99.99
29.16, 99.99
29.16, 99.99
29.16, 99.99
29.16, 99.99
29.16, 99.99
29.16, 99.99
29.16, 99.99
29.16, 99.99
29.16, 99.99
29.16, 99.99
29.16, 99.99
29.16, 99.99
29.16, 99.99
29.16, 99.99
29.16, 99.99
29.16, 99.99
29.16, 99.99
29.16, 99.99
29.16, 99.99
29.16, 99.99
29.16, 99.99
29.16, 99.99
29.16, 99.99
29.16, 99.99
29.16, 99.99
29.16, 99.99
29.16, 99.99
29.16, 99.99
29.16, 99.99
29.16, 99.99
29.17, 99.99
29.17, 99.99
29.17, 99.99
29.17, 99.99
29.17, 99.99
29.17, 99.99
29.17, 99.99
29.17, 99.99
29.17, 99.99
29.17, 99.99
29.17, 99.99
29.17, 99.99
29.17, 99.99
29.17, 99.99
29.17, 99.99
29.17, 99.99
29.17, 99.99
29.17, 99.99
29.17, 99.99
29.17, 99.99
29.17, 99.99
29.17, 99.99
29.17, 99.99
29.17, 99.99
29.17, 99.99
29.17, 99.99
29.17, 99.99
29.17, 99.99
29.17, 99.99
29.17, 99.99
29.17, 99.99
29.17, 99.99
29.17, 99.99
29.17, 99.99
29.17, 99.99
29.17, 99.99
29.17, 99.99
29.17, 99.99
29.17, 99.99
29.17, 99.99
29.17, 99.99
29.17, 99.99
29.17, 99.99
29.17, 99.99
29.17, 99.99
29.17, 99.99
29.17, 99.99
29.17, 99.99
29.17, 99.99
29.17, 99.99
29.17, 99.99
29.17, 99.99
29.17, 99.99
29.17, 99.99
29.17, 99.99
29.17, 99.99
29.17, 99.99
29.17, 99.99
29.17, 99.99
29.17, 99.99
29.17, 99.99
29.17, 99.99
29.17, 99.99
29.17, 99.99
29.17, 99.99
29.17, 99.99
29.17, 99.99
29.17, 99.99
29.17, 99.99
29.17, 99.99
29.17, 99.99
29.17, 99.99
29.17, 99.99
29.17, 99.99
29.17, 99.99
29.17, 99.99
29.17, 99.99
29.17, 99.99
29.17, 99.99
29.18, 99.99
29.18, 99.99
29.18, 99.99
29.18, 99.99
29.18, 99.99
29.18, 99.99
29.18, 99.99
29.18, 99.99
29.18, 99.99
29.18, 99.99
29.18, 99.99
29.18, 99.99
29.18, 99.99
29.18, 99.99
29.18, 99.99
29.18, 99.99
29.18, 99.99
29.18, 99.99
29.18, 99.99
29.18, 99.99
29.18, 99.99
29.18, 99.99
29.18, 99.99
29.18, 99.99
29.18, 99.99
29.18, 99.99
29.18, 99.99
29.18, 99.99
29.18, 99.99
29.18, 99.99
29.18, 99.99
29.18, 99.99
29.18, 99.99
29.18, 99.99
29.18, 99.99
29.18, 99.99
29.18, 99.99
29.18, 99.99
29.18, 99.99
29.18, 99.99
29.18, 99.99
29.18, 99.99
29.18, 99.99
29.18, 99.99
29.18, 99.99
29.18, 99.99
29.18, 99.99
29.18, 99.99
29.18, 99.99
29.18, 99.99
29.18, 99.99
29.18, 99.99
29.18, 99.99
29.18, 99.99
29.18, 99.99
29.19, 99.99
29.19, 99.99
29.19, 99.99
29.19, 99.99
29.19, 99.99
29.19, 99.99
29.19, 99.99
29.19, 99.99
29.19, 99.99
29.19, 99.99
29.19, 99.99
29.19, 99.99
29.19, 99.99
29.19, 99.99
29.19, 99.99
29.19, 99.99
29.19, 99.99
29.19, 99.99
29.19, 99.99
29.19, 99.99
29.19, 99.99
29.19, 99.99
29.19, 99.99
29.19, 99.99
29.19, 99.99
29.19, 99.99
29.19, 99.99
29.19, 99.99
29.19, 99.99
29.19, 99.99
29.19, 99.99
29.19, 99.99
29.19, 99.99
29.19, 99.99
29.19, 99.99
29.19, 99.99
29.19, 99.99
29.19, 99.99
29.19, 99.99
29.19, 99.99
29.19, 99.99
29.19, 99.99
29.19, 99.99
29.19, 99.99
29.19, 99.99
29.19, 99.99
29.19, 99.99
29.19, 99.99
29.2, 99.99
29.2, 99.99
29.2, 99.99
29.2, 99.99
29.2, 99.99
29.2, 99.99
29.2, 99.99
29.2, 99.99
29.2, 99.99
29.2, 99.99
29.2, 99.99
29.2, 99.99
29.2, 99.99
29.2, 99.99
29.2, 99.99
29.2, 99.99
29.2, 99.99
29.2, 99.99
29.2, 99.99
29.2, 99.99
29.2, 99.99
29.2, 99.99
29.2, 99.99
29.2, 99.99
29.2, 99.99
29.2, 99.99
29.2, 99.99
29.2, 99.99
29.2, 99.99
29.2, 99.99
29.2, 99.99
29.2, 99.99
29.2, 99.99
29.2, 99.99
29.2, 99.99
29.2, 99.99
29.2, 99.99
29.2, 99.99
29.2, 99.99
29.2, 99.99
29.2, 99.99
29.2, 99.99
29.2, 99.99
29.2, 99.99
29.2, 99.99
29.21, 99.99
29.21, 99.99
29.21, 99.99
29.21, 99.99
29.21, 99.99
29.21, 99.99
29.21, 99.99
29.21, 99.99
29.21, 99.99
29.21, 99.99
29.21, 99.99
29.21, 99.99
29.21, 99.99
29.21, 99.99
29.21, 99.99
29.21, 99.99
29.21, 99.99
29.21, 99.99
29.21, 99.99
29.21, 99.99
29.21, 99.99
29.21, 99.99
29.21, 99.99
29.21, 99.99
29.21, 99.99
29.21, 99.99
29.21, 99.99
29.21, 99.99
29.21, 99.99
29.21, 99.99
29.21, 99.99
29.21, 99.99
29.21, 99.99
29.21, 99.99
29.21, 99.99
29.21, 99.99
29.21, 99.99
29.21, 99.99
29.21, 99.99
29.22, 99.99
29.22, 99.99
29.22, 99.99
29.22, 99.99
29.22, 99.99
29.22, 99.99
29.22, 99.99
29.22, 99.99
29.22, 99.99
29.22, 99.99
29.22, 99.99
29.22, 99.99
29.22, 99.99
29.22, 99.99
29.22, 99.99
29.22, 99.99
29.22, 99.99
29.22, 99.99
29.22, 99.99
29.22, 99.99
29.22, 99.99
29.22, 99.99
29.22, 99.99
29.22, 99.99
29.22, 99.99
29.22, 99.99
29.22, 99.99
29.22, 99.99
29.22, 99.99
29.22, 99.99
29.22, 99.99
29.22, 99.99
29.22, 99.99
29.22, 99.99
29.22, 99.99
29.22, 99.99
29.22, 99.99
29.23, 99.99
29.23, 99.99
29.23, 99.99
29.23, 99.99
29.23, 99.99
29.23, 99.99
29.23, 99.99
29.23, 99.99
29.23, 99.99
29.23, 99.99
29.23, 99.99
29.23, 99.99
29.23, 99.99
29.23, 99.99
29.23, 99.99
29.23, 99.99
29.23, 99.99
29.23, 99.99
29.23, 99.99
29.23, 99.99
29.23, 99.99
29.23, 99.99
29.23, 99.99
29.23, 99.99
29.23, 99.99
29.23, 99.99
29.23, 99.99
29.23, 99.99
29.23, 99.99
29.23, 99.99
29.23, 99.99
29.23, 99.99
29.23, 99.99
29.23, 99.99
29.23, 99.99
29.24, 99.99
29.24, 99.99
29.24, 99.99
29.24, 99.99
29.24, 99.99
29.24, 99.99
29.24, 99.99
29.24, 99.99
29.24, 99.99
29.24, 99.99
29.24, 99.99
29.24, 99.99
29.24, 99.99
29.24, 99.99
29.24, 99.99
29.24, 99.99
29.24, 99.99
29.24, 99.99
29.24, 99.99
29.24, 99.99
29.24, 99.99
29.24, 99.99
29.24, 99.99
29.24, 99.99
29.24, 99.99
29.24, 99.99
29.24, 99.99
29.24, 99.99
29.24, 99.99
29.24, 99.99
29.24, 99.99
29.24, 99.99
29.25, 99.99
29.25, 99.99
29.25, 99.99
29.25, 99.99
29.25, 99.99
29.25, 99.99
29.25, 99.99
29.25, 99.99
29.25, 99.99
29.25, 99.99
29.25, 99.99
29.25, 99.99
29.25, 99.99
29.25, 99.99
29.25, 99.99
29.25, 99.99
29.25, 99.99
29.25, 99.99
29.25, 99.99
29.25, 99.99
29.25, 99.99
29.25, 99.99
29.25, 99.99
29.25, 99.99
29.25, 99.99
29.25, 99.99
29.25, 99.99
29.25, 99.99
29.25, 99.99
29.25, 99.99
29.25, 99.99
29.26, 99.99
29.26, 99.99
29.26, 99.99
29.26, 99.99
29.26, 99.99
29.26, 99.99
29.26, 99.99
29.26, 99.99
29.26, 99.99
29.26, 99.99
29.26, 99.99
29.26, 99.99
29.26, 99.99
29.26, 99.99
29.26, 99.99
29.26, 99.99
29.26, 99.99
29.26, 99.99
29.26, 99.99
29.26, 99.99
29.26, 99.99
29.26, 99.99
29.26, 99.99
29.26, 99.99
29.26, 99.99
29.26, 99.99
29.26, 99.99
29.26, 99.99
29.26, 99.99
29.27, 99.99
29.27, 99.99
29.27, 99.99
29.27, 99.99
29.27, 99.99
29.27, 99.99
29.27, 99.99
29.27, 99.99
29.27, 99.99
29.27, 99.99
29.27, 99.99
29.27, 99.99
29.27, 99.99
29.27, 99.99
29.27, 99.99
29.27, 99.99
29.27, 99.99
29.27, 99.99
29.27, 99.99
29.27, 99.99
29.27, 99.99
29.27, 99.99
29.27, 99.99
29.27, 99.99
29.27, 99.99
29.27, 99.99
29.27, 99.99
29.27, 99.99
29.28, 99.99
29.28, 99.99
29.28, 99.99
29.28, 99.99
29.28, 99.99
29.28, 99.99
29.28, 99.99
29.28, 99.99
29.28, 99.99
29.28, 99.99
29.28, 99.99
29.28, 99.99
29.28, 99.99
29.28, 99.99
29.28, 99.99
29.28, 99.99
29.28, 99.99
29.28, 99.99
29.28, 99.99
29.28, 99.99
29.28, 99.99
29.28, 99.99
29.28, 99.99
29.28, 99.99
29.28, 99.99
29.28, 99.99
29.28, 99.99
29.29, 99.99
29.29, 99.99
29.29, 99.99
29.29, 99.99
29.29, 99.99
##END=$$ End of the data block
