##TITLE=Spectrum
##JCAMP-DX=5.00 $$ chemotion-converter-app (1.7.0)
##DATA TYPE=SIZE EXCLUSION CHROMATOGRAPHY
##DATA CLASS=XYPOINTS
##ORIGIN=
##OWNER=
##XUNITS=MILLILITERS
##YUNITS=ARBITRARY UNITS
##LABEL=Vial   3: TM-82
##COMMENTS=C:\GPC-data\H2O-GPC\Tamara\TM-82.TXT
##DETEC1=PSS SECcurity RI
##DETEC2=PSS SECcurity UV
##COL1=PSS Suprema precolumn 10 µm
##COL2=PSS Suprema 30A 10 µm
##COL3=PSS Suprema 1000 A 10 µm
##IN_VOL=50.000
##ELUENT=Na2HPO4*2H2O 0,07M
##FLOW=1.000
##TEMPERATURE=30.000
##DATE=26.06.93
##TIME=15:55:39
##OPERATOR=GPCAdmin
##D=2.795E+0
##MN=2.531E+3
##MP=5.952E+3
##MV=0.000E+0
##MW=7.076E+3
##MZ=1.316E+4
##VP=2.583E+1
##N=0.000E+0
##FIRSTX=2.32505E+1
##LASTX=2.91685E+1
##MINX=23.2505
##MAXX=29.1685
##MINY=0.0
##MAXY=0.00695323
##NPOINTS=352
##FIRSTY=0.00000E+0
##XUNITS=MILLILITERS
##YUNITS=ARBITRARY UNITS
##XYPOINTS=(XY..XY)
2.32505E+1, 0.00000E+0
2.32674E+1, 7.83123E-8
2.32842E+1, 1.56625E-7
2.33011E+1, 2.34937E-7
2.33180E+1, 3.13249E-7
2.33348E+1, 3.86371E-6
2.33517E+1, 5.30107E-6
2.33685E+1, 5.37938E-6
2.33854E+1, 5.45769E-6
2.34023E+1, 5.53600E-6
2.34191E+1, 5.61432E-6
2.34360E+1, 9.08737E-6
2.34528E+1, 1.07485E-5
2.34697E+1, 1.08268E-5
2.34866E+1, 1.41114E-5
2.35034E+1, 1.58147E-5
2.35203E+1, 1.91355E-5
2.35371E+1, 2.09489E-5
2.35540E+1, 2.42089E-5
2.35709E+1, 2.60831E-5
2.35877E+1, 2.91904E-5
2.36046E+1, 3.41613E-5
2.36214E+1, 3.61268E-5
2.36383E+1, 3.91455E-5
2.36552E+1, 4.41137E-5
2.36720E+1, 4.90518E-5
2.36889E+1, 5.40182E-5
2.37057E+1, 5.89582E-5
2.37226E+1, 6.39228E-5
2.37395E+1, 7.17114E-5
2.37563E+1, 7.88049E-5
2.37732E+1, 8.37484E-5
2.37900E+1, 9.13839E-5
2.38069E+1, 9.85661E-5
2.38238E+1, 1.06207E-4
2.38406E+1, 1.16034E-4
2.38575E+1, 1.25861E-4
2.38743E+1, 1.35688E-4
2.38912E+1, 1.45515E-4
2.39081E+1, 1.55417E-4
2.39249E+1, 1.65316E-4
2.39418E+1, 1.75143E-4
2.39587E+1, 1.87349E-4
2.39755E+1, 2.02049E-4
2.39924E+1, 2.16824E-4
2.40092E+1, 2.31528E-4
2.40261E+1, 2.46226E-4
2.40430E+1, 2.61000E-4
2.40598E+1, 2.77976E-4
2.40767E+1, 2.97552E-4
2.40935E+1, 3.14985E-4
2.41104E+1, 3.31873E-4
2.41273E+1, 3.53595E-4
2.41441E+1, 3.76002E-4
2.41610E+1, 3.97664E-4
2.41778E+1, 4.22187E-4
2.41947E+1, 4.46651E-4
2.42116E+1, 4.71087E-4
2.42284E+1, 4.97516E-4
2.42453E+1, 5.28775E-4
2.42621E+1, 5.61199E-4
2.42790E+1, 5.90614E-4
2.42959E+1, 6.21782E-4
2.43127E+1, 6.56054E-4
2.43296E+1, 6.90325E-4
2.43464E+1, 7.24597E-4
2.43633E+1, 7.60539E-4
2.43802E+1, 7.99613E-4
2.43970E+1, 8.40346E-4
2.44139E+1, 8.84367E-4
2.44307E+1, 9.28387E-4
2.44476E+1, 9.72408E-4
2.44645E+1, 1.01797E-3
2.44813E+1, 1.06689E-3
2.44982E+1, 1.11723E-3
2.45150E+1, 1.17111E-3
2.45319E+1, 1.22488E-3
2.45488E+1, 1.27999E-3
2.45656E+1, 1.33860E-3
2.45825E+1, 1.39860E-3
2.45993E+1, 1.46087E-3
2.46162E+1, 1.52207E-3
2.46331E+1, 1.59050E-3
2.46499E+1, 1.65886E-3
2.46668E+1, 1.72850E-3
2.46836E+1, 1.80187E-3
2.47005E+1, 1.87514E-3
2.47174E+1, 1.94949E-3
2.47342E+1, 2.02872E-3
2.47511E+1, 2.11075E-3
2.47679E+1, 2.18995E-3
2.47848E+1, 2.27309E-3
2.48017E+1, 2.35613E-3
2.48185E+1, 2.44016E-3
2.48354E+1, 2.52900E-3
2.48522E+1, 2.62107E-3
2.48691E+1, 2.70979E-3
2.48860E+1, 2.80246E-3
2.49028E+1, 2.89611E-3
2.49197E+1, 2.99393E-3
2.49365E+1, 3.09154E-3
2.49534E+1, 3.18935E-3
2.49703E+1, 3.28758E-3
2.49871E+1, 3.39095E-3
2.50040E+1, 3.49784E-3
2.50208E+1, 3.60036E-3
2.50377E+1, 3.70290E-3
2.50546E+1, 3.80568E-3
2.50714E+1, 3.90819E-3
2.50883E+1, 4.01112E-3
2.51051E+1, 4.11858E-3
2.51220E+1, 4.22606E-3
2.51389E+1, 4.33347E-3
2.51557E+1, 4.43598E-3
2.51726E+1, 4.53851E-3
2.51895E+1, 4.64130E-3
2.52063E+1, 4.74402E-3
2.52232E+1, 4.85064E-3
2.52400E+1, 4.93489E-3
2.52569E+1, 5.06110E-3
2.52738E+1, 5.15394E-3
2.52906E+1, 5.24213E-3
2.53075E+1, 5.35446E-3
2.53243E+1, 5.44242E-3
2.53412E+1, 5.52545E-3
2.53581E+1, 5.62808E-3
2.53749E+1, 5.71627E-3
2.53918E+1, 5.79939E-3
2.54086E+1, 5.88721E-3
2.54255E+1, 5.96562E-3
2.54424E+1, 6.04396E-3
2.54592E+1, 6.12677E-3
2.54761E+1, 6.19599E-3
2.54929E+1, 6.26884E-3
2.55098E+1, 6.33760E-3
2.55267E+1, 6.40147E-3
2.55435E+1, 6.46069E-3
2.55604E+1, 6.51021E-3
2.55772E+1, 6.56817E-3
2.55941E+1, 6.61808E-3
2.56110E+1, 6.66678E-3
2.56278E+1, 6.71130E-3
2.56447E+1, 6.75120E-3
2.56615E+1, 6.79031E-3
2.56784E+1, 6.82506E-3
2.56953E+1, 6.85085E-3
2.57121E+1, 6.87537E-3
2.57290E+1, 6.89989E-3
2.57458E+1, 6.91601E-3
2.57627E+1, 6.93064E-3
2.57796E+1, 6.94137E-3
2.57964E+1, 6.94723E-3
2.58133E+1, 6.95226E-3
2.58301E+1, 6.95323E-3
2.58470E+1, 6.94527E-3
2.58639E+1, 6.93546E-3
2.58807E+1, 6.92191E-3
2.58976E+1, 6.90744E-3
2.59144E+1, 6.89297E-3
2.59313E+1, 6.87076E-3
2.59482E+1, 6.84256E-3
2.59650E+1, 6.81705E-3
2.59819E+1, 6.78536E-3
2.59987E+1, 6.74742E-3
2.60156E+1, 6.71215E-3
2.60325E+1, 6.67081E-3
2.60493E+1, 6.62694E-3
2.60662E+1, 6.58308E-3
2.60830E+1, 6.53562E-3
2.60999E+1, 6.48681E-3
2.61168E+1, 6.43467E-3
2.61336E+1, 6.38100E-3
2.61505E+1, 6.32745E-3
2.61673E+1, 6.26709E-3
2.61842E+1, 6.20373E-3
2.62011E+1, 6.14355E-3
2.62179E+1, 6.08169E-3
2.62348E+1, 6.01501E-3
2.62516E+1, 5.94670E-3
2.62685E+1, 5.87859E-3
2.62854E+1, 5.81038E-3
2.63022E+1, 5.73887E-3
2.63191E+1, 5.66562E-3
2.63359E+1, 5.59255E-3
2.63528E+1, 5.51629E-3
2.63697E+1, 5.44134E-3
2.63865E+1, 5.36820E-3
2.64034E+1, 5.29193E-3
2.64203E+1, 5.21390E-3
2.64371E+1, 5.13599E-3
2.64540E+1, 5.05791E-3
2.64708E+1, 4.97987E-3
2.64877E+1, 4.90179E-3
2.65046E+1, 4.82376E-3
2.65214E+1, 4.74848E-3
2.65383E+1, 4.67262E-3
2.65551E+1, 4.59454E-3
2.65720E+1, 4.51650E-3
2.65889E+1, 4.43843E-3
2.66057E+1, 4.36038E-3
2.66226E+1, 4.28247E-3
2.66394E+1, 4.20441E-3
2.66563E+1, 4.12635E-3
2.66732E+1, 4.05082E-3
2.66900E+1, 3.97756E-3
2.67069E+1, 3.90445E-3
2.67237E+1, 3.82891E-3
2.67406E+1, 3.75325E-3
2.67575E+1, 3.68252E-3
2.67743E+1, 3.61187E-3
2.67912E+1, 3.53861E-3
2.68080E+1, 3.46778E-3
2.68249E+1, 3.39737E-3
2.68418E+1, 3.32634E-3
2.68586E+1, 3.25803E-3
2.68755E+1, 3.19189E-3
2.68923E+1, 3.12639E-3
2.69092E+1, 3.06019E-3
2.69261E+1, 2.99682E-3
2.69429E+1, 2.93142E-3
2.69598E+1, 2.86713E-3
2.69766E+1, 2.80860E-3
2.69935E+1, 2.74806E-3
2.70104E+1, 2.68662E-3
2.70272E+1, 2.62821E-3
2.70441E+1, 2.56974E-3
2.70609E+1, 2.51300E-3
2.70778E+1, 2.45934E-3
2.70947E+1, 2.40563E-3
2.71115E+1, 2.35202E-3
2.71284E+1, 2.29841E-3
2.71452E+1, 2.24479E-3
2.71621E+1, 2.19283E-3
2.71790E+1, 2.14250E-3
2.71958E+1, 2.09037E-3
2.72127E+1, 2.04321E-3
2.72295E+1, 1.99935E-3
2.72464E+1, 1.95254E-3
2.72633E+1, 1.90181E-3
2.72801E+1, 1.85795E-3
2.72970E+1, 1.81268E-3
2.73138E+1, 1.76661E-3
2.73307E+1, 1.72766E-3
2.73476E+1, 1.68605E-3
2.73644E+1, 1.63987E-3
2.73813E+1, 1.60210E-3
2.73981E+1, 1.56569E-3
2.74150E+1, 1.52417E-3
2.74319E+1, 1.49005E-3
2.74487E+1, 1.45481E-3
2.74656E+1, 1.41684E-3
2.74824E+1, 1.38276E-3
2.74993E+1, 1.34876E-3
2.75162E+1, 1.31464E-3
2.75330E+1, 1.28053E-3
2.75499E+1, 1.24736E-3
2.75667E+1, 1.21816E-3
2.75836E+1, 1.18888E-3
2.76005E+1, 1.15971E-3
2.76173E+1, 1.13052E-3
2.76342E+1, 1.10122E-3
2.76511E+1, 1.07206E-3
2.76679E+1, 1.04287E-3
2.76848E+1, 1.01428E-3
2.77016E+1, 9.90036E-4
2.77185E+1, 9.66310E-4
2.77354E+1, 9.46280E-4
2.77522E+1, 9.21914E-4
2.77691E+1, 8.97547E-4
2.77859E+1, 8.73196E-4
2.78028E+1, 8.49436E-4
2.78197E+1, 8.29439E-4
2.78365E+1, 8.05206E-4
2.78534E+1, 7.81623E-4
2.78702E+1, 7.65925E-4
2.78871E+1, 7.37748E-4
2.79040E+1, 7.22526E-4
2.79208E+1, 6.98436E-4
2.79377E+1, 6.79016E-4
2.79545E+1, 6.59597E-4
2.79714E+1, 6.40542E-4
2.79883E+1, 6.30563E-4
2.80051E+1, 6.11002E-4
2.80220E+1, 5.91673E-4
2.80388E+1, 5.76994E-4
2.80557E+1, 5.57607E-4
2.80726E+1, 5.43135E-4
2.80894E+1, 5.28518E-4
2.81063E+1, 5.13900E-4
2.81231E+1, 4.94538E-4
2.81400E+1, 4.79833E-4
2.81569E+1, 4.65358E-4
2.81737E+1, 4.55542E-4
2.81906E+1, 4.41104E-4
2.82074E+1, 4.26487E-4
2.82243E+1, 4.12008E-4
2.82412E+1, 3.97398E-4
2.82580E+1, 3.87425E-4
2.82749E+1, 3.73140E-4
2.82917E+1, 3.63107E-4
2.83086E+1, 3.48883E-4
2.83255E+1, 3.38788E-4
2.83423E+1, 3.24757E-4
2.83592E+1, 3.14616E-4
2.83760E+1, 3.04815E-4
2.83929E+1, 2.90857E-4
2.84098E+1, 2.80627E-4
2.84266E+1, 2.70956E-4
2.84435E+1, 2.61159E-4
2.84603E+1, 2.51469E-4
2.84772E+1, 2.41798E-4
2.84941E+1, 2.32128E-4
2.85109E+1, 2.22457E-4
2.85278E+1, 2.12787E-4
2.85446E+1, 2.03116E-4
2.85615E+1, 1.97422E-4
2.85784E+1, 1.88607E-4
2.85952E+1, 1.78936E-4
2.86121E+1, 1.73153E-4
2.86289E+1, 1.64426E-4
2.86458E+1, 1.54756E-4
2.86627E+1, 1.49000E-4
2.86795E+1, 1.40392E-4
2.86964E+1, 1.34462E-4
2.87132E+1, 1.25883E-4
2.87301E+1, 1.19893E-4
2.87470E+1, 1.15135E-4
2.87638E+1, 1.06680E-4
2.87807E+1, 1.00602E-4
2.87975E+1, 9.58410E-5
2.88144E+1, 9.10106E-5
2.88313E+1, 8.61417E-5
2.88481E+1, 8.13782E-5
2.88650E+1, 7.65504E-5
2.88819E+1, 7.17851E-5
2.88987E+1, 6.69591E-5
2.89156E+1, 6.21920E-5
2.89324E+1, 5.73679E-5
2.89493E+1, 5.25989E-5
2.89662E+1, 4.77766E-5
2.89830E+1, 4.29077E-5
2.89999E+1, 4.13445E-5
2.90167E+1, 3.82440E-5
2.90336E+1, 3.34252E-5
2.90505E+1, 2.86509E-5
2.90673E+1, 2.38339E-5
2.90842E+1, 2.21185E-5
2.91010E+1, 1.91657E-5
2.91179E+1, 1.43514E-5
2.91348E+1, 1.25446E-5
2.91516E+1, 9.68045E-6
2.91685E+1, 4.86884E-6
##END=$$ End of the data block
