##TITLE=Spectrum
##JCAMP-DX=5.00 $$ chemotion-converter-app (1.5.0)
##DATA TYPE=SIZE EXCLUSION CHROMATOGRAPHY
##DATA CLASS=XYPOINTS
##ORIGIN=
##OWNER=
##XUNITS=G/MOL
##YUNITS=ARBITRARY UNITS
##NO_DEC=1
##SOFTWARE=WINGPC
##VERSION=8#1
##FIRSTX=5.64519E+3
##LASTX=2.08485E+5
##MINX=5645.19
##MAXX=208485.0
##MINY=0.0
##MAXY=1.70632
##NPOINTS=288
##FIRSTY=5.68409E-3
##XUNITS=G/MOL
##YUNITS=ARBITRARY UNITS
##XYPOINTS=(XY..XY)
5.64519E+3, 5.68409E-3
5.71662E+3, 8.08080E-3
5.78896E+3, 1.12985E-2
5.86222E+3, 1.55519E-2
5.93641E+3, 1.97553E-2
6.01153E+3, 2.48185E-2
6.08760E+3, 3.06732E-2
6.16464E+3, 3.59859E-2
6.24265E+3, 4.21182E-2
6.32164E+3, 4.95685E-2
6.40164E+3, 5.74978E-2
6.48265E+3, 6.44707E-2
6.56469E+3, 7.28095E-2
6.64776E+3, 8.23542E-2
6.73188E+3, 9.06840E-2
6.81707E+3, 1.00371E-1
6.90334E+3, 1.11191E-1
6.99070E+3, 1.19979E-1
7.07916E+3, 1.29666E-1
7.16875E+3, 1.39930E-1
7.25946E+3, 1.48761E-1
7.35133E+3, 1.58573E-1
7.44436E+3, 1.67582E-1
7.53856E+3, 1.74536E-1
7.63396E+3, 1.82091E-1
7.73056E+3, 1.89147E-1
7.82839E+3, 1.94520E-1
7.92745E+3, 1.99460E-1
8.02777E+3, 2.04055E-1
8.12936E+3, 2.07726E-1
8.23223E+3, 2.10439E-1
8.33641E+3, 2.12717E-1
8.44190E+3, 2.14238E-1
8.54873E+3, 2.15134E-1
8.65691E+3, 2.15548E-1
8.76646E+3, 2.15640E-1
8.87739E+3, 2.15519E-1
8.98973E+3, 2.15228E-1
9.10349E+3, 2.15236E-1
9.21870E+3, 2.15537E-1
9.33535E+3, 2.16165E-1
9.45349E+3, 2.17269E-1
9.57312E+3, 2.18877E-1
9.69426E+3, 2.21459E-1
9.81694E+3, 2.24311E-1
9.94117E+3, 2.27580E-1
1.00670E+4, 2.31924E-1
1.01944E+4, 2.37591E-1
1.03234E+4, 2.42686E-1
1.04540E+4, 2.48350E-1
1.05863E+4, 2.56342E-1
1.07203E+4, 2.63056E-1
1.08559E+4, 2.70140E-1
1.09933E+4, 2.78614E-1
1.11324E+4, 2.85062E-1
1.12733E+4, 2.92037E-1
1.14159E+4, 3.00701E-1
1.15604E+4, 3.06943E-1
1.17067E+4, 3.13443E-1
1.18548E+4, 3.20693E-1
1.20049E+4, 3.26325E-1
1.21568E+4, 3.32026E-1
1.23106E+4, 3.37892E-1
1.24664E+4, 3.43819E-1
1.26242E+4, 3.48809E-1
1.27839E+4, 3.54711E-1
1.29457E+4, 3.60911E-1
1.31095E+4, 3.66056E-1
1.32754E+4, 3.72000E-1
1.34434E+4, 3.78227E-1
1.36135E+4, 3.84452E-1
1.37858E+4, 3.92179E-1
1.39602E+4, 3.99408E-1
1.41369E+4, 4.06182E-1
1.43158E+4, 4.15209E-1
1.44970E+4, 4.24179E-1
1.46804E+4, 4.32937E-1
1.48662E+4, 4.43914E-1
1.50543E+4, 4.53542E-1
1.52448E+4, 4.62998E-1
1.54377E+4, 4.74253E-1
1.56331E+4, 4.88112E-1
1.58309E+4, 4.99380E-1
1.60312E+4, 5.11004E-1
1.62341E+4, 5.27113E-1
1.64395E+4, 5.40992E-1
1.66476E+4, 5.55334E-1
1.68582E+4, 5.73332E-1
1.70716E+4, 5.87622E-1
1.72876E+4, 6.03838E-1
1.75064E+4, 6.24644E-1
1.77279E+4, 6.42266E-1
1.79523E+4, 6.62202E-1
1.81794E+4, 6.84921E-1
1.84095E+4, 7.03831E-1
1.86424E+4, 7.26395E-1
1.88784E+4, 7.53026E-1
1.91173E+4, 7.74334E-1
1.93592E+4, 7.96285E-1
1.96042E+4, 8.22534E-1
1.98522E+4, 8.50932E-1
2.01035E+4, 8.76920E-1
2.03579E+4, 9.06301E-1
2.06155E+4, 9.34426E-1
2.08764E+4, 9.60061E-1
2.11405E+4, 9.93129E-1
2.14081E+4, 1.02345E+0
2.16790E+4, 1.04994E+0
2.19533E+4, 1.08260E+0
2.22311E+4, 1.11159E+0
2.25124E+4, 1.14085E+0
2.27973E+4, 1.17505E+0
2.30858E+4, 1.20117E+0
2.33780E+4, 1.22623E+0
2.36738E+4, 1.25218E+0
2.39734E+4, 1.28470E+0
2.42767E+4, 1.31180E+0
2.45840E+4, 1.33724E+0
2.48951E+4, 1.36727E+0
2.52101E+4, 1.38905E+0
2.55291E+4, 1.41189E+0
2.58522E+4, 1.44111E+0
2.61793E+4, 1.46048E+0
2.65106E+4, 1.48022E+0
2.68461E+4, 1.50338E+0
2.71858E+4, 1.52047E+0
2.75298E+4, 1.53799E+0
2.78782E+4, 1.55826E+0
2.82310E+4, 1.57204E+0
2.85882E+4, 1.58624E+0
2.89500E+4, 1.60176E+0
2.93164E+4, 1.61325E+0
2.96874E+4, 1.62314E+0
3.00630E+4, 1.63344E+0
3.04435E+4, 1.64336E+0
3.08287E+4, 1.65120E+0
3.12188E+4, 1.65934E+0
3.16139E+4, 1.66617E+0
3.20140E+4, 1.67130E+0
3.24191E+4, 1.67696E+0
3.28293E+4, 1.68233E+0
3.32448E+4, 1.68663E+0
3.36655E+4, 1.69094E+0
3.40915E+4, 1.69446E+0
3.45229E+4, 1.69721E+0
3.49598E+4, 1.70016E+0
3.54022E+4, 1.70253E+0
3.58502E+4, 1.70425E+0
3.63038E+4, 1.70567E+0
3.67632E+4, 1.70632E+0
3.72285E+4, 1.70629E+0
3.76996E+4, 1.70556E+0
3.81766E+4, 1.70389E+0
3.86597E+4, 1.70174E+0
3.91490E+4, 1.69884E+0
3.96444E+4, 1.69381E+0
4.01461E+4, 1.68815E+0
4.06541E+4, 1.68154E+0
4.11686E+4, 1.67217E+0
4.16895E+4, 1.66321E+0
4.22171E+4, 1.65324E+0
4.27513E+4, 1.63844E+0
4.32923E+4, 1.62417E+0
4.38402E+4, 1.60840E+0
4.43949E+4, 1.58750E+0
4.49567E+4, 1.56912E+0
4.55256E+4, 1.55073E+0
4.61017E+4, 1.52867E+0
4.66851E+4, 1.50053E+0
4.72759E+4, 1.47872E+0
4.78742E+4, 1.45645E+0
4.84800E+4, 1.42654E+0
4.90935E+4, 1.40157E+0
4.97148E+4, 1.37518E+0
5.03439E+4, 1.34474E+0
5.09809E+4, 1.32095E+0
5.16261E+4, 1.29697E+0
5.22794E+4, 1.26563E+0
5.29410E+4, 1.23924E+0
5.36109E+4, 1.21423E+0
5.42893E+4, 1.18369E+0
5.49763E+4, 1.16087E+0
5.56720E+4, 1.13798E+0
5.63765E+4, 1.10826E+0
5.70900E+4, 1.08407E+0
5.78124E+4, 1.06088E+0
5.85440E+4, 1.03884E+0
5.92848E+4, 1.01059E+0
6.00351E+4, 9.88732E-1
6.07948E+4, 9.64673E-1
6.15641E+4, 9.37211E-1
6.23432E+4, 9.16097E-1
6.31321E+4, 8.95572E-1
6.39310E+4, 8.68839E-1
6.47400E+4, 8.45438E-1
6.55593E+4, 8.23355E-1
6.63889E+4, 7.97621E-1
6.72290E+4, 7.76463E-1
6.80798E+4, 7.56238E-1
6.89413E+4, 7.29402E-1
6.98137E+4, 7.06530E-1
7.06972E+4, 6.86749E-1
7.15918E+4, 6.62295E-1
7.24978E+4, 6.39946E-1
7.34152E+4, 6.19683E-1
7.43442E+4, 5.98788E-1
7.52850E+4, 5.75762E-1
7.62377E+4, 5.54595E-1
7.72025E+4, 5.36589E-1
7.81794E+4, 5.15662E-1
7.91688E+4, 4.94923E-1
8.01706E+4, 4.77678E-1
8.11851E+4, 4.57900E-1
8.22125E+4, 4.38569E-1
8.32528E+4, 4.23818E-1
8.43064E+4, 4.07767E-1
8.53732E+4, 3.90088E-1
8.64536E+4, 3.76122E-1
8.75476E+4, 3.61805E-1
8.86555E+4, 3.46496E-1
8.97774E+4, 3.35354E-1
9.09135E+4, 3.24729E-1
9.20639E+4, 3.12961E-1
9.32290E+4, 2.99711E-1
9.44087E+4, 2.90507E-1
9.56034E+4, 2.81313E-1
9.68133E+4, 2.68993E-1
9.80384E+4, 2.60153E-1
9.92790E+4, 2.51923E-1
1.00535E+5, 2.41900E-1
1.01808E+5, 2.32969E-1
1.03096E+5, 2.24822E-1
1.04401E+5, 2.14610E-1
1.05722E+5, 2.04708E-1
1.07060E+5, 1.96452E-1
1.08414E+5, 1.86851E-1
1.09786E+5, 1.76504E-1
1.11176E+5, 1.67892E-1
1.12582E+5, 1.57719E-1
1.14007E+5, 1.46366E-1
1.15450E+5, 1.38292E-1
1.16911E+5, 1.29591E-1
1.18390E+5, 1.20822E-1
1.19888E+5, 1.08754E-1
1.21406E+5, 1.00237E-1
1.22942E+5, 9.25048E-2
1.24498E+5, 8.30625E-2
1.26073E+5, 7.54072E-2
1.27668E+5, 6.83215E-2
1.29284E+5, 6.05752E-2
1.30920E+5, 5.40398E-2
1.32577E+5, 4.91496E-2
1.34255E+5, 4.38532E-2
1.35953E+5, 3.81432E-2
1.37674E+5, 3.39610E-2
1.39416E+5, 2.99853E-2
1.41180E+5, 2.56877E-2
1.42967E+5, 2.29703E-2
1.44776E+5, 2.03141E-2
1.46608E+5, 1.70600E-2
1.48463E+5, 1.45424E-2
1.50342E+5, 1.24721E-2
1.52245E+5, 1.06674E-2
1.54171E+5, 8.76794E-3
1.56122E+5, 6.98927E-3
1.58098E+5, 5.71512E-3
1.60099E+5, 4.35235E-3
1.62124E+5, 2.87298E-3
1.64176E+5, 2.00229E-3
1.66254E+5, 1.11894E-3
1.68358E+5, 1.84147E-4
1.70488E+5, 0.00000E+0
1.72645E+5, 0.00000E+0
1.74830E+5, 0.00000E+0
1.77043E+5, 0.00000E+0
1.79283E+5, 0.00000E+0
1.81552E+5, 0.00000E+0
1.83849E+5, 0.00000E+0
1.86176E+5, 0.00000E+0
1.88532E+5, 0.00000E+0
1.90917E+5, 0.00000E+0
1.93333E+5, 0.00000E+0
1.95780E+5, 0.00000E+0
1.98257E+5, 0.00000E+0
2.00766E+5, 0.00000E+0
2.03307E+5, 0.00000E+0
2.05880E+5, 0.00000E+0
2.08485E+5, 0.00000E+0
##END=$$ End of the data block
