##TITLE=Spectrum
##JCAMP-DX=5.00 $$ chemotion-converter-app (1.6.2)
##DATA TYPE=SIZE EXCLUSION CHROMATOGRAPHY
##DATA CLASS=XYPOINTS
##ORIGIN=
##OWNER=
##XUNITS=MILLILITERS
##YUNITS=ARBITRARY UNITS
##LABEL=Vial   8: MS-185 - 1
##COMMENTS=\\129.13.136.127\Shared_Folder\Analysis\GPC_THF_CS_R311\Marvin Subarew\MS-185\MS-185_PMMA Calibration.TXT
##DETEC1=I1: RID 1, RI Signal
##DETEC2=I1: VWD 1, Signal A
##DETEC3=I1: IsoPump 1, Pressure
##COL1=default
##IN_VOL=100.000
##ELUENT=THF
##FLOW=1.000
##TEMPERATURE=25.000
##DATE=15.08.22
##TIME=21:06:30
##NO_DEC=1
##SOFTWARE=WINGPC
##VERSION=8#1
##OPERATOR=GPCAdmin
##FIRSTX=1.35112E+1
##LASTX=1.86476E+1
##MINX=13.5112
##MAXX=18.6476
##MINY=0.0
##MAXY=99.9965
##NPOINTS=311
##FIRSTY=0.00000E+0
##XUNITS=MILLILITERS
##YUNITS=ARBITRARY UNITS
##XYPOINTS=(XY..XY)
1.35112E+1, 0.00000E+0
1.35277E+1, 0.00000E+0
1.35443E+1, 0.00000E+0
1.35609E+1, 0.00000E+0
1.35774E+1, 0.00000E+0
1.35940E+1, 0.00000E+0
1.36106E+1, 0.00000E+0
1.36272E+1, 0.00000E+0
1.36437E+1, 0.00000E+0
1.36603E+1, 0.00000E+0
1.36769E+1, 0.00000E+0
1.36934E+1, 0.00000E+0
1.37100E+1, 0.00000E+0
1.37266E+1, 0.00000E+0
1.37431E+1, 0.00000E+0
1.37597E+1, 0.00000E+0
1.37763E+1, 0.00000E+0
1.37928E+1, 0.00000E+0
1.38094E+1, 0.00000E+0
1.38260E+1, 0.00000E+0
1.38426E+1, 0.00000E+0
1.38591E+1, 0.00000E+0
1.38757E+1, 0.00000E+0
1.38923E+1, 0.00000E+0
1.39088E+1, 0.00000E+0
1.39254E+1, 0.00000E+0
1.39420E+1, 0.00000E+0
1.39585E+1, 0.00000E+0
1.39751E+1, 0.00000E+0
1.39917E+1, 0.00000E+0
1.40082E+1, 0.00000E+0
1.40248E+1, 0.00000E+0
1.40414E+1, 0.00000E+0
1.40580E+1, 0.00000E+0
1.40745E+1, 0.00000E+0
1.40911E+1, 5.47769E-2
1.41077E+1, 1.18880E-1
1.41242E+1, 1.81183E-1
1.41408E+1, 2.81635E-1
1.41574E+1, 3.78304E-1
1.41739E+1, 4.67830E-1
1.41905E+1, 6.03654E-1
1.42071E+1, 7.28623E-1
1.42236E+1, 8.61897E-1
1.42402E+1, 1.01442E+0
1.42568E+1, 1.22885E+0
1.42734E+1, 1.42480E+0
1.42899E+1, 1.61079E+0
1.43065E+1, 1.87952E+0
1.43231E+1, 2.15682E+0
1.43396E+1, 2.44074E+0
1.43562E+1, 2.82841E+0
1.43728E+1, 3.18271E+0
1.43893E+1, 3.51501E+0
1.44059E+1, 3.99957E+0
1.44225E+1, 4.50662E+0
1.44390E+1, 4.97157E+0
1.44556E+1, 5.56946E+0
1.44722E+1, 6.12959E+0
1.44888E+1, 6.66440E+0
1.45053E+1, 7.38200E+0
1.45219E+1, 8.03782E+0
1.45385E+1, 8.61184E+0
1.45550E+1, 9.15155E+0
1.45716E+1, 9.84847E+0
1.45882E+1, 1.05333E+1
1.46047E+1, 1.10976E+1
1.46213E+1, 1.17658E+1
1.46379E+1, 1.23768E+1
1.46544E+1, 1.29070E+1
1.46710E+1, 1.35722E+1
1.46876E+1, 1.41829E+1
1.47042E+1, 1.46996E+1
1.47207E+1, 1.53100E+1
1.47373E+1, 1.58956E+1
1.47539E+1, 1.64076E+1
1.47704E+1, 1.70842E+1
1.47870E+1, 1.77600E+1
1.48036E+1, 1.83300E+1
1.48201E+1, 1.90425E+1
1.48367E+1, 1.98201E+1
1.48533E+1, 2.05105E+1
1.48698E+1, 2.11858E+1
1.48864E+1, 2.20385E+1
1.49030E+1, 2.29655E+1
1.49196E+1, 2.38290E+1
1.49361E+1, 2.48499E+1
1.49527E+1, 2.58937E+1
1.49693E+1, 2.68018E+1
1.49858E+1, 2.79224E+1
1.50024E+1, 2.91660E+1
1.50190E+1, 3.02336E+1
1.50355E+1, 3.14632E+1
1.50521E+1, 3.27639E+1
1.50687E+1, 3.38556E+1
1.50852E+1, 3.51355E+1
1.51018E+1, 3.65324E+1
1.51184E+1, 3.77941E+1
1.51350E+1, 3.90106E+1
1.51515E+1, 4.03835E+1
1.51681E+1, 4.18213E+1
1.51847E+1, 4.30028E+1
1.52012E+1, 4.44314E+1
1.52178E+1, 4.59749E+1
1.52344E+1, 4.71617E+1
1.52509E+1, 4.84813E+1
1.52675E+1, 4.99652E+1
1.52841E+1, 5.12687E+1
1.53006E+1, 5.27119E+1
1.53172E+1, 5.42094E+1
1.53338E+1, 5.53972E+1
1.53504E+1, 5.67264E+1
1.53669E+1, 5.82993E+1
1.53835E+1, 5.96549E+1
1.54001E+1, 6.10299E+1
1.54166E+1, 6.25883E+1
1.54332E+1, 6.38786E+1
1.54498E+1, 6.52226E+1
1.54663E+1, 6.67109E+1
1.54829E+1, 6.83401E+1
1.54995E+1, 6.96419E+1
1.55160E+1, 7.10646E+1
1.55326E+1, 7.27527E+1
1.55492E+1, 7.41971E+1
1.55658E+1, 7.57825E+1
1.55823E+1, 7.74924E+1
1.55989E+1, 7.88464E+1
1.56155E+1, 8.02805E+1
1.56320E+1, 8.19766E+1
1.56486E+1, 8.34535E+1
1.56652E+1, 8.49265E+1
1.56817E+1, 8.65525E+1
1.56983E+1, 8.77907E+1
1.57149E+1, 8.90734E+1
1.57314E+1, 9.06177E+1
1.57480E+1, 9.18230E+1
1.57646E+1, 9.28364E+1
1.57812E+1, 9.38698E+1
1.57977E+1, 9.50058E+1
1.58143E+1, 9.58593E+1
1.58309E+1, 9.66360E+1
1.58474E+1, 9.74286E+1
1.58640E+1, 9.79489E+1
1.58806E+1, 9.84119E+1
1.58971E+1, 9.89018E+1
1.59137E+1, 9.92316E+1
1.59303E+1, 9.95046E+1
1.59469E+1, 9.97517E+1
1.59634E+1, 9.98704E+1
1.59800E+1, 9.99442E+1
1.59966E+1, 9.99965E+1
1.60131E+1, 9.99950E+1
1.60297E+1, 9.99521E+1
1.60463E+1, 9.98775E+1
1.60628E+1, 9.97515E+1
1.60794E+1, 9.96110E+1
1.60960E+1, 9.94468E+1
1.61125E+1, 9.92264E+1
1.61291E+1, 9.90278E+1
1.61457E+1, 9.88152E+1
1.61623E+1, 9.85184E+1
1.61788E+1, 9.82431E+1
1.61954E+1, 9.79361E+1
1.62120E+1, 9.75448E+1
1.62285E+1, 9.72194E+1
1.62451E+1, 9.68786E+1
1.62617E+1, 9.63738E+1
1.62782E+1, 9.58829E+1
1.62948E+1, 9.54069E+1
1.63114E+1, 9.47290E+1
1.63279E+1, 9.41529E+1
1.63445E+1, 9.35519E+1
1.63611E+1, 9.28300E+1
1.63777E+1, 9.18404E+1
1.63942E+1, 9.10755E+1
1.64108E+1, 9.02567E+1
1.64274E+1, 8.89842E+1
1.64439E+1, 8.80392E+1
1.64605E+1, 8.70437E+1
1.64771E+1, 8.56652E+1
1.64936E+1, 8.45646E+1
1.65102E+1, 8.34535E+1
1.65268E+1, 8.17697E+1
1.65433E+1, 8.04723E+1
1.65599E+1, 7.92323E+1
1.65765E+1, 7.75539E+1
1.65931E+1, 7.60966E+1
1.66096E+1, 7.45961E+1
1.66262E+1, 7.27523E+1
1.66428E+1, 7.12456E+1
1.66593E+1, 6.98166E+1
1.66759E+1, 6.84544E+1
1.66925E+1, 6.65373E+1
1.67090E+1, 6.48136E+1
1.67256E+1, 6.32923E+1
1.67422E+1, 6.13754E+1
1.67587E+1, 5.98225E+1
1.67753E+1, 5.83422E+1
1.67919E+1, 5.63367E+1
1.68085E+1, 5.47790E+1
1.68250E+1, 5.33754E+1
1.68416E+1, 5.16428E+1
1.68582E+1, 5.01191E+1
1.68747E+1, 4.86788E+1
1.68913E+1, 4.70121E+1
1.69079E+1, 4.56603E+1
1.69244E+1, 4.44519E+1
1.69410E+1, 4.32651E+1
1.69576E+1, 4.17148E+1
1.69741E+1, 4.05189E+1
1.69907E+1, 3.94681E+1
1.70073E+1, 3.81922E+1
1.70239E+1, 3.70827E+1
1.70404E+1, 3.60994E+1
1.70570E+1, 3.49584E+1
1.70736E+1, 3.40200E+1
1.70901E+1, 3.32155E+1
1.71067E+1, 3.22565E+1
1.71233E+1, 3.14098E+1
1.71398E+1, 3.06365E+1
1.71564E+1, 2.97669E+1
1.71730E+1, 2.90466E+1
1.71895E+1, 2.84289E+1
1.72061E+1, 2.76925E+1
1.72227E+1, 2.70060E+1
1.72393E+1, 2.64416E+1
1.72558E+1, 2.59326E+1
1.72724E+1, 2.53300E+1
1.72890E+1, 2.47879E+1
1.73055E+1, 2.43120E+1
1.73221E+1, 2.37827E+1
1.73387E+1, 2.33368E+1
1.73552E+1, 2.29727E+1
1.73718E+1, 2.25431E+1
1.73884E+1, 2.21366E+1
1.74049E+1, 2.18031E+1
1.74215E+1, 2.14499E+1
1.74381E+1, 2.11316E+1
1.74547E+1, 2.08479E+1
1.74712E+1, 2.05013E+1
1.74878E+1, 2.01759E+1
1.75044E+1, 1.99003E+1
1.75209E+1, 1.95784E+1
1.75375E+1, 1.92497E+1
1.75541E+1, 1.89358E+1
1.75706E+1, 1.86233E+1
1.75872E+1, 1.82449E+1
1.76038E+1, 1.78651E+1
1.76203E+1, 1.75205E+1
1.76369E+1, 1.70853E+1
1.76535E+1, 1.66544E+1
1.76701E+1, 1.62916E+1
1.76866E+1, 1.58680E+1
1.77032E+1, 1.54360E+1
1.77198E+1, 1.50553E+1
1.77363E+1, 1.46426E+1
1.77529E+1, 1.42620E+1
1.77695E+1, 1.39643E+1
1.77860E+1, 1.36630E+1
1.78026E+1, 1.33773E+1
1.78192E+1, 1.31605E+1
1.78357E+1, 1.29894E+1
1.78523E+1, 1.28341E+1
1.78689E+1, 1.27099E+1
1.78855E+1, 1.26306E+1
1.79020E+1, 1.25792E+1
1.79186E+1, 1.25525E+1
1.79352E+1, 1.25423E+1
1.79517E+1, 1.25509E+1
1.79683E+1, 1.25714E+1
1.79849E+1, 1.25821E+1
1.80014E+1, 1.25812E+1
1.80180E+1, 1.25614E+1
1.80346E+1, 1.25150E+1
1.80511E+1, 1.24335E+1
1.80677E+1, 1.23094E+1
1.80843E+1, 1.21607E+1
1.81009E+1, 1.19625E+1
1.81174E+1, 1.17053E+1
1.81340E+1, 1.14313E+1
1.81506E+1, 1.11304E+1
1.81671E+1, 1.07566E+1
1.81837E+1, 1.03105E+1
1.82003E+1, 9.91915E+0
1.82168E+1, 9.44645E+0
1.82334E+1, 8.87020E+0
1.82500E+1, 8.35282E+0
1.82665E+1, 7.80971E+0
1.82831E+1, 7.20659E+0
1.82997E+1, 6.70721E+0
1.83163E+1, 6.13906E+0
1.83328E+1, 5.51339E+0
1.83494E+1, 5.02852E+0
1.83660E+1, 4.51712E+0
1.83825E+1, 3.97336E+0
1.83991E+1, 3.55390E+0
1.84157E+1, 3.13346E+0
1.84322E+1, 2.66434E+0
1.84488E+1, 2.27618E+0
1.84654E+1, 1.95015E+0
1.84819E+1, 1.63517E+0
1.84985E+1, 1.29754E+0
1.85151E+1, 1.03520E+0
1.85317E+1, 7.93960E-1
1.85482E+1, 5.60363E-1
1.85648E+1, 4.03808E-1
1.85814E+1, 2.71839E-1
1.85979E+1, 1.51516E-1
1.86145E+1, 7.26796E-2
1.86311E+1, 2.19511E-2
1.86476E+1, 0.00000E+0
##END=$$ End of the data block
