##TITLE=Spectrum
##JCAMP-DX=5.00 $$ chemotion-converter-app (1.6.2)
##DATA TYPE=CYCLIC VOLTAMMETRY
##DATA CLASS=XYPOINTS
##ORIGIN=
##OWNER=
##CALCULATION_APPLIED_Y=True
##XUNITS=Voltage in V
##YUNITS=Current in A
##CYCLES=1
##TIME=17:20:34
##DATE=2018-01-04
##SCAN_RATE=2.000E-001
##SOFTWARE=PSTrace
##SOFTWARE_VERSION=5.3.1110.30560
##STEP_SIZE=1.000E-002
##VOLTAGE_START=0.000E+000
##VOLTAGE_LIMIT_ONE=1.800E+000
##VOLTAGE_LIMIT_TWO=-1.800E+000
##VOLTAGE_LIMIT_END=5.000E-001
##COMMENTS=File053.pssession
##FIRSTX=4.99413E-05
##LASTX=-0.00994404
##MINX=-1.80885
##MAXX=1.80895
##MINY=-1.10686e-05
##MAXY=9.51171e-06
##NPOINTS=724
##FIRSTY=-3.20318e-07
##XUNITS=Voltage in V
##YUNITS=Current in A
##XYPOINTS=(XY..XY)
4.99413E-05, -3.20318e-07
0.0100439, -1.27189e-07
0.0200379, -5.531309999999999e-08
0.0300315, -5.93662e-09
0.0400255, 1.3437299999999998e-08
0.0500195, 3.99067e-08
0.0600134, 6.359480000000001e-08
0.0700074, 7.590749999999999e-08
0.080001, 8.497e-08
0.089995, 8.93452e-08
0.099989, 1.1409499999999999e-07
0.109983, 1.14533e-07
0.119977, 1.32783e-07
0.129971, 1.26283e-07
0.139964, 1.55909e-07
0.149958, 1.54721e-07
0.159952, 1.75097e-07
0.169946, 1.73971e-07
0.17994, 1.97222e-07
0.189934, 2.07284e-07
0.199928, 2.21285e-07
0.209922, 2.27285e-07
0.219916, 2.42285e-07
0.22991, 2.59848e-07
0.239904, 2.66973e-07
0.249897, 2.83723e-07
0.259891, 2.88098e-07
0.269885, 3.23599e-07
0.279879, 3.2828600000000003e-07
0.289873, 3.5859899999999997e-07
0.299867, 3.58224e-07
0.309861, 4.0241199999999996e-07
0.319855, 4.18725e-07
0.329849, 4.4997599999999995e-07
0.339843, 4.6466299999999996e-07
0.349837, 5.09664e-07
0.35983, 5.34602e-07
0.369824, 5.78915e-07
0.379818, 5.95415e-07
0.389812, 6.40604e-07
0.399806, 6.75042e-07
0.4098, 7.14542e-07
0.419794, 7.526049999999999e-07
0.429788, 7.871059999999999e-07
0.439782, 8.440439999999999e-07
0.449776, 8.857949999999999e-07
0.45977, 9.37046e-07
0.469764, 9.78109e-07
0.479757, 1.03011e-06
0.489751, 1.0874900000000001e-06
0.499745, 1.14342e-06
0.509739, 1.17736e-06
0.519733, 1.23311e-06
0.529727, 1.28086e-06
0.539721, 1.3403599999999999e-06
0.549715, 1.36549e-06
0.559709, 1.4001799999999998e-06
0.569703, 1.4603699999999998e-06
0.579696, 1.48668e-06
0.58969, 1.5391799999999999e-06
0.599684, 1.54793e-06
0.609678, 1.6128100000000001e-06
0.619672, 1.6378399999999998e-06
0.629666, 1.6815899999999999e-06
0.63966, 1.68721e-06
0.649654, 1.7434599999999999e-06
0.659648, 1.74784e-06
0.669642, 1.79847e-06
0.679635, 1.78409e-06
0.689629, 1.85347e-06
0.699623, 1.8409699999999998e-06
0.709617, 1.88972e-06
0.719611, 1.8822199999999999e-06
0.729605, 1.8990899999999999e-06
0.739599, 1.9215899999999997e-06
0.749593, 1.93034e-06
0.759587, 1.95284e-06
0.769581, 1.95347e-06
0.779574, 1.98222e-06
0.789568, 2.01034e-06
0.799562, 2.0309699999999997e-06
0.809556, 2.0284699999999997e-06
0.81955, 2.07472e-06
0.829544, 2.08284e-06
0.839538, 2.1441e-06
0.849532, 2.09785e-06
0.859526, 2.15034e-06
0.86952, 2.15034e-06
0.879513, 2.16784e-06
0.889507, 2.17847e-06
0.899501, 2.20613e-06
0.909495, 2.2341e-06
0.919489, 2.2441e-06
0.929483, 2.2728499999999998e-06
0.939477, 2.25847e-06
0.949471, 2.29535e-06
0.959465, 2.31285e-06
0.969459, 2.3809699999999998e-06
0.979453, 2.32597e-06
0.989446, 2.4028499999999998e-06
0.99944, 2.37785e-06
1.00943, 2.50848e-06
1.01943, 2.40098e-06
1.02942, 2.48973e-06
1.03942, 2.46347e-06
1.04941, 2.5022199999999997e-06
1.0594, 2.4959799999999998e-06
1.0694, 2.51472e-06
1.07939, 2.5341e-06
1.08939, 2.56848e-06
1.09938, 2.57035e-06
1.10937, 2.57848e-06
1.11937, 2.6441e-06
1.12936, 2.65035e-06
1.13935, 2.7178499999999997e-06
1.14935, 2.6734799999999998e-06
1.15934, 2.8478599999999996e-06
1.16934, 2.7428499999999995e-06
1.17933, 2.89286e-06
1.18932, 2.80473e-06
1.19932, 2.87411e-06
1.20931, 2.88973e-06
1.21931, 2.9559799999999996e-06
1.2293, 2.96911e-06
1.23929, 3.01911e-06
1.24929, 3.06598e-06
1.25928, 3.13786e-06
1.26928, 3.18911e-06
1.27927, 3.21286e-06
1.28926, 3.36661e-06
1.29926, 3.3647399999999996e-06
1.30925, 3.59537e-06
1.31925, 3.46349e-06
1.32924, 3.74349e-06
1.33923, 3.63787e-06
1.34923, 3.83912e-06
1.35922, 3.77537e-06
1.36921, 3.867249999999999e-06
1.37921, 3.92662e-06
1.3892, 4.0378699999999995e-06
1.3992, 4.07537e-06
1.40919, 4.1334999999999995e-06
1.41918, 4.1978799999999995e-06
1.42918, 4.30038e-06
1.43917, 4.49288e-06
1.44917, 4.4359999999999995e-06
1.45916, 4.63913e-06
1.46915, 4.64163e-06
1.47915, 5.028509999999999e-06
1.48914, 4.806639999999999e-06
1.49914, 5.1222700000000005e-06
1.50913, 5.044769999999999e-06
1.51912, 5.2535199999999995e-06
1.52912, 5.2485199999999995e-06
1.53911, 5.3972699999999996e-06
1.5491, 5.475399999999999e-06
1.5591, 5.6579e-06
1.56909, 5.692899999999999e-06
1.57909, 5.78915e-06
1.58908, 5.899149999999999e-06
1.59907, 6.01665e-06
1.60907, 6.21166e-06
1.61906, 6.21166e-06
1.62906, 6.51854e-06
1.63905, 6.48979e-06
1.64904, 6.84167e-06
1.65904, 6.80104e-06
1.66903, 7.008549999999999e-06
1.67903, 7.055419999999999e-06
1.68902, 7.2172999999999995e-06
1.69901, 7.3716799999999995e-06
1.70901, 7.56293e-06
1.719, 7.77918e-06
1.729, 7.91668e-06
1.73899, 8.123559999999999e-06
1.74898, 8.26856e-06
1.75898, 8.61794e-06
1.76897, 8.7017e-06
1.77896, 9.099830000000001e-06
1.78896, 9.04795e-06
1.79895, 9.501709999999998e-06
1.80895, 9.51171e-06
1.79895, 7.77606e-06
1.78896, 6.4210399999999994e-06
1.77896, 5.607899999999999e-06
1.76897, 4.891009999999999e-06
1.75898, 4.35725e-06
1.74898, 3.7785e-06
1.73899, 3.38411e-06
1.729, 3.0103599999999998e-06
1.719, 2.74223e-06
1.70901, 2.5240999999999997e-06
1.69901, 2.2241e-06
1.68902, 2.0728399999999997e-06
1.67903, 1.8878399999999998e-06
1.66903, 1.8103399999999999e-06
1.65904, 1.57721e-06
1.64904, 1.5003299999999998e-06
1.63905, 1.39408e-06
1.62906, 1.28596e-06
1.61906, 1.19033e-06
1.60907, 1.06283e-06
1.59907, 1.05345e-06
1.58908, 9.478259999999999e-07
1.57909, 9.15327e-07
1.56909, 7.972e-07
1.5591, 8.097e-07
1.5491, 7.253239999999999e-07
1.53911, 7.240720000000001e-07
1.52912, 5.95946e-07
1.51912, 6.084469999999999e-07
1.50913, 5.44071e-07
1.49914, 5.52197e-07
1.48914, 4.47819e-07
1.47915, 4.37193e-07
1.46915, 4.09069e-07
1.45916, 3.82819e-07
1.44917, 3.27818e-07
1.43917, 2.9078599999999997e-07
1.42918, 2.78536e-07
1.41918, 2.69223e-07
1.40919, 2.3791e-07
1.3992, 1.93159e-07
1.3892, 1.86159e-07
1.37921, 1.8065899999999998e-07
1.36921, 1.43158e-07
1.35922, 9.903259999999999e-08
1.34923, 7.72824e-08
1.33923, 8.322e-08
1.32924, 4.97196e-08
1.31925, 2.3594099999999998e-08
1.30925, -2.7156599999999998e-08
1.29926, 9.71889e-09
1.28926, -4.54695e-08
1.27927, -3.46568e-08
1.26928, -8.92826e-08
1.25928, -5.4282099999999995e-08
1.24929, -9.34702e-08
1.23929, -8.65326e-08
1.2293, -1.5365899999999999e-07
1.21931, -1.32096e-07
1.20931, -1.55284e-07
1.19932, -1.53534e-07
1.18932, -2.0734699999999998e-07
1.17933, -2.0622199999999998e-07
1.16934, -2.11535e-07
1.15934, -2.1372199999999999e-07
1.14935, -2.47598e-07
1.13935, -2.7097300000000003e-07
1.12936, -2.5472299999999997e-07
1.11937, -2.5953500000000003e-07
1.10937, -2.79911e-07
1.09938, -3.02348e-07
1.08939, -2.91723e-07
1.07939, -2.91036e-07
1.0694, -3.14286e-07
1.0594, -3.34974e-07
1.04941, -3.4572399999999995e-07
1.03942, -3.5099e-07
1.02942, -3.59287e-07
1.01943, -3.63974e-07
1.00943, -4.00975e-07
0.99944, -3.6378700000000003e-07
0.989446, -4.0084999999999994e-07
0.979453, -3.94912e-07
0.969459, -4.45163e-07
0.959465, -3.96912e-07
0.949471, -4.2935e-07
0.939477, -4.156e-07
0.929483, -4.31975e-07
0.919489, -4.40663e-07
0.909495, -4.4228799999999997e-07
0.899501, -4.4703799999999996e-07
0.889507, -4.84039e-07
0.879513, -4.95414e-07
0.86952, -4.72163e-07
0.859526, -4.94289e-07
0.849532, -5.07102e-07
0.839538, -5.344769999999999e-07
0.829544, -5.051639999999999e-07
0.81955, -5.32477e-07
0.809556, -5.192269999999999e-07
0.799562, -5.5179e-07
0.789568, -5.25352e-07
0.779574, -5.43477e-07
0.769581, -5.35039e-07
0.759587, -5.77603e-07
0.749593, -5.80103e-07
0.739599, -5.695400000000001e-07
0.729605, -5.8654e-07
0.719611, -6.03353e-07
0.709617, -6.212910000000001e-07
0.699623, -6.001649999999999e-07
0.689629, -6.16728e-07
0.679635, -6.36291e-07
0.669642, -6.69042e-07
0.659648, -6.486659999999999e-07
0.649654, -6.67979e-07
0.63966, -6.74354e-07
0.629666, -7.12542e-07
0.619672, -7.0323e-07
0.609678, -7.2223e-07
0.599684, -7.5148e-07
0.58969, -7.83481e-07
0.579696, -8.03544e-07
0.569703, -8.06606e-07
0.559709, -8.542319999999999e-07
0.549715, -8.72607e-07
0.539721, -9.17795e-07
0.529727, -9.15045e-07
0.519733, -9.57983e-07
0.509739, -9.80921e-07
0.499745, -1.02705e-06
0.489751, -1.02461e-06
0.479757, -1.05092e-06
0.469764, -1.0641099999999998e-06
0.45977, -1.10849e-06
0.449776, -1.1099199999999999e-06
0.439782, -1.12511e-06
0.429788, -1.1405499999999998e-06
0.419794, -1.16224e-06
0.4098, -1.17905e-06
0.399806, -1.16211e-06
0.389812, -1.1787399999999999e-06
0.379818, -1.1868e-06
0.369824, -1.2006699999999998e-06
0.35983, -1.1828599999999999e-06
0.349837, -1.18774e-06
0.339843, -1.18817e-06
0.329849, -1.19361e-06
0.319855, -1.18067e-06
0.309861, -1.1734899999999998e-06
0.299867, -1.1689199999999999e-06
0.289873, -1.1830499999999998e-06
0.279879, -1.1895500000000001e-06
0.269885, -1.16386e-06
0.259891, -1.17655e-06
0.249897, -1.16992e-06
0.239904, -1.1957999999999998e-06
0.22991, -1.15211e-06
0.219916, -1.1747399999999998e-06
0.209922, -1.16211e-06
0.199928, -1.18517e-06
0.189934, -1.15167e-06
0.17994, -1.1677999999999999e-06
0.169946, -1.1533599999999998e-06
0.159952, -1.17561e-06
0.149958, -1.1501099999999999e-06
0.139964, -1.1641699999999998e-06
0.129971, -1.1665499999999999e-06
0.119977, -1.17867e-06
0.109983, -1.1718e-06
0.099989, -1.17755e-06
0.089995, -1.17999e-06
0.080001, -1.17974e-06
0.0700074, -1.1793899999999998e-06
0.0600134, -1.17592e-06
0.0500195, -1.18192e-06
0.0400255, -1.19011e-06
0.0300315, -1.1991700000000001e-06
0.0200379, -1.18849e-06
0.0100439, -1.1853e-06
4.99413E-05, -1.19724e-06
-0.00994404, -1.2011099999999999e-06
-0.019938, -1.20336e-06
-0.0299316, -1.19311e-06
-0.0399256, -1.2194899999999999e-06
-0.0499196, -1.20924e-06
-0.0599135, -1.2388e-06
-0.0699075, -1.20249e-06
-0.0799013, -1.23693e-06
-0.0898951, -1.22092e-06
-0.0998891, -1.25061e-06
-0.109883, -1.2194199999999998e-06
-0.119877, -1.24455e-06
-0.129871, -1.23193e-06
-0.139865, -1.25755e-06
-0.149859, -1.2382999999999999e-06
-0.159853, -1.24774e-06
-0.169846, -1.23793e-06
-0.17984, -1.2638599999999998e-06
-0.189834, -1.2704899999999999e-06
-0.199828, -1.2572399999999998e-06
-0.209822, -1.27636e-06
-0.219816, -1.28218e-06
-0.22981, -1.3016799999999998e-06
-0.239804, -1.27411e-06
-0.249798, -1.2903e-06
-0.259792, -1.2991099999999998e-06
-0.269785, -1.3108599999999998e-06
-0.279779, -1.2949299999999999e-06
-0.289773, -1.30324e-06
-0.299767, -1.30874e-06
-0.309761, -1.3086299999999998e-06
-0.319755, -1.31168e-06
-0.329749, -1.3108599999999998e-06
-0.339743, -1.3243e-06
-0.349737, -1.32861e-06
-0.359731, -1.34924e-06
-0.369724, -1.32986e-06
-0.379718, -1.36574e-06
-0.389712, -1.35161e-06
-0.399706, -1.3884299999999999e-06
-0.4097, -1.34993e-06
-0.419694, -1.37855e-06
-0.429688, -1.3743e-06
-0.439682, -1.40843e-06
-0.449676, -1.37855e-06
-0.45967, -1.3978699999999998e-06
-0.469663, -1.3884299999999999e-06
-0.479657, -1.41087e-06
-0.489651, -1.39555e-06
-0.499645, -1.4037999999999998e-06
-0.509639, -1.42587e-06
-0.519633, -1.43524e-06
-0.529627, -1.4522999999999998e-06
-0.539621, -1.44187e-06
-0.549615, -1.4791799999999998e-06
-0.559609, -1.4644299999999999e-06
-0.569602, -1.49155e-06
-0.579596, -1.4723699999999999e-06
-0.58959, -1.4814899999999999e-06
-0.599584, -1.4896199999999998e-06
-0.609578, -1.50662e-06
-0.619572, -1.50387e-06
-0.629566, -1.49805e-06
-0.63956, -1.50662e-06
-0.649554, -1.5164899999999997e-06
-0.659548, -1.5472999999999998e-06
-0.669541, -1.5281800000000001e-06
-0.679535, -1.56268e-06
-0.689529, -1.56281e-06
-0.699523, -1.61243e-06
-0.709517, -1.56949e-06
-0.719511, -1.6094299999999998e-06
-0.729505, -1.59443e-06
-0.739499, -1.63237e-06
-0.749493, -1.61081e-06
-0.759487, -1.63762e-06
-0.769481, -1.63518e-06
-0.779474, -1.6575599999999998e-06
-0.789468, -1.66096e-06
-0.799462, -1.66721e-06
-0.809456, -1.6834599999999998e-06
-0.81945, -1.69471e-06
-0.829444, -1.71659e-06
-0.839438, -1.68534e-06
-0.849432, -1.7315899999999998e-06
-0.859426, -1.71659e-06
-0.86942, -1.77784e-06
-0.879413, -1.7259599999999998e-06
-0.889407, -1.76221e-06
-0.899401, -1.74659e-06
-0.909395, -1.78159e-06
-0.919389, -1.7540899999999998e-06
-0.929383, -1.77096e-06
-0.939377, -1.7697099999999998e-06
-0.949371, -1.77472e-06
-0.959365, -1.7697099999999998e-06
-0.969359, -1.7672099999999998e-06
-0.979353, -1.80534e-06
-0.989347, -1.78534e-06
-0.99934, -1.82409e-06
-1.00933, -1.78972e-06
-1.01933, -1.8409699999999998e-06
-1.02932, -1.81722e-06
-1.03932, -1.86534e-06
-1.04931, -1.83597e-06
-1.0593, -1.8659699999999998e-06
-1.0693, -1.86534e-06
-1.07929, -1.88847e-06
-1.08929, -1.88284e-06
-1.09928, -1.89347e-06
-1.10927, -1.90909e-06
-1.11927, -1.92409e-06
-1.12926, -1.9484699999999997e-06
-1.13926, -1.92534e-06
-1.14925, -1.96597e-06
-1.15924, -1.97722e-06
-1.16924, -2.04909e-06
-1.17923, -1.9990899999999998e-06
-1.18922, -2.06409e-06
-1.19922, -2.0472199999999998e-06
-1.20921, -2.0990899999999997e-06
-1.21921, -2.09034e-06
-1.2292, -2.12847e-06
-1.23919, -2.14597e-06
-1.24919, -2.1966e-06
-1.25918, -2.2272199999999997e-06
-1.26918, -2.27347e-06
-1.27917, -2.3365999999999998e-06
-1.28916, -2.3791000000000002e-06
-1.29916, -2.4765999999999997e-06
-1.30915, -2.5316e-06
-1.31915, -2.6753499999999997e-06
-1.32914, -2.75598e-06
-1.33913, -2.93598e-06
-1.34913, -3.05723e-06
-1.35912, -3.3091099999999996e-06
-1.36911, -3.5728699999999997e-06
-1.37911, -3.961e-06
-1.3891, -4.376e-06
-1.3991, -4.9141399999999995e-06
-1.40909, -5.54665e-06
-1.41908, -6.2566599999999995e-06
-1.42908, -7.071049999999999e-06
-1.43907, -7.909809999999999e-06
-1.44907, -8.8792e-06
-1.45906, -9.674839999999999e-06
-1.46905, -1.0493e-05
-1.47905, -1.08617e-05
-1.48904, -1.10686e-05
-1.49904, -1.0661099999999999e-05
-1.50903, -1.0164199999999998e-05
-1.51902, -9.291079999999998e-06
-1.52902, -8.476689999999999e-06
-1.53901, -7.5898e-06
-1.549, -6.86792e-06
-1.559, -6.16291e-06
-1.56899, -5.58852e-06
-1.57899, -5.10602e-06
-1.58898, -4.752259999999999e-06
-1.59897, -4.49538e-06
-1.60897, -4.216e-06
-1.61896, -4.09037e-06
-1.62896, -3.920999999999999e-06
-1.63895, -3.90162e-06
-1.64894, -3.74412e-06
-1.65894, -3.7684999999999996e-06
-1.66893, -3.69599e-06
-1.67893, -3.70724e-06
-1.68892, -3.65287e-06
-1.69891, -3.65349e-06
-1.70891, -3.6484899999999996e-06
-1.7189, -3.6459899999999996e-06
-1.7289, -3.6491199999999996e-06
-1.73889, -3.6491199999999996e-06
-1.74888, -3.70599e-06
-1.75888, -3.70724e-06
-1.76887, -3.7878699999999998e-06
-1.77886, -3.70849e-06
-1.78886, -3.801e-06
-1.79885, -3.7478699999999997e-06
-1.80885, -3.87037e-06
-1.79885, -3.15661e-06
-1.78886, -2.80973e-06
-1.77886, -2.4872299999999996e-06
-1.76887, -2.30222e-06
-1.75888, -2.0728399999999997e-06
-1.74888, -1.9378399999999997e-06
-1.73889, -1.79909e-06
-1.7289, -1.69721e-06
-1.7189, -1.5890899999999999e-06
-1.70891, -1.4815899999999999e-06
-1.69891, -1.43721e-06
-1.68892, -1.3497099999999998e-06
-1.67893, -1.31283e-06
-1.66893, -1.22221e-06
-1.65894, -1.21908e-06
-1.64894, -1.1422e-06
-1.63895, -1.1297e-06
-1.62896, -1.0584499999999998e-06
-1.61896, -1.04095e-06
-1.60897, -9.89078e-07
-1.59897, -9.50327e-07
-1.58898, -9.10952e-07
-1.57899, -8.71576e-07
-1.56899, -8.634509999999999e-07
-1.559, -8.297e-07
-1.549, -8.253249999999999e-07
-1.53901, -7.646989999999999e-07
-1.52902, -7.82825e-07
-1.51902, -7.37824e-07
-1.50903, -7.42199e-07
-1.49904, -6.80323e-07
-1.48904, -7.04074e-07
-1.47905, -6.65323e-07
-1.46905, -6.78447e-07
-1.45906, -6.15323e-07
-1.44907, -6.15323e-07
-1.43907, -5.921969999999999e-07
-1.42908, -5.928219999999999e-07
-1.41908, -5.64697e-07
-1.40909, -5.50946e-07
-1.3991, -5.46571e-07
-1.3891, -5.37196e-07
-1.37911, -5.284450000000001e-07
-1.36911, -4.97196e-07
-1.35912, -4.99071e-07
-1.34913, -4.8407e-07
-1.33913, -4.871949999999999e-07
-1.32914, -4.4969599999999995e-07
-1.31915, -4.47819e-07
-1.30915, -4.3406999999999997e-07
-1.29916, -4.3906899999999995e-07
-1.28916, -4.10318e-07
-1.27917, -3.9472499999999996e-07
-1.26918, -3.961e-07
-1.25918, -3.816e-07
-1.24919, -3.7722499999999996e-07
-1.23919, -3.44349e-07
-1.2292, -3.57599e-07
-1.21921, -3.28224e-07
-1.20921, -3.46849e-07
-1.19922, -2.97036e-07
-1.18922, -3.0691099999999996e-07
-1.17923, -2.81223e-07
-1.16924, -2.94348e-07
-1.15924, -2.6522299999999997e-07
-1.14925, -2.7834799999999995e-07
-1.13926, -2.61535e-07
-1.12926, -2.6522299999999997e-07
-1.11927, -2.3484699999999999e-07
-1.10927, -2.2678499999999998e-07
-1.09928, -2.2884699999999998e-07
-1.08929, -2.1572199999999998e-07
-1.07929, -2.01659e-07
-1.0693, -1.7178399999999997e-07
-1.0593, -1.81534e-07
-1.04931, -1.8428399999999998e-07
-1.03932, -1.6753399999999997e-07
-1.02932, -1.47971e-07
-1.01933, -1.5634600000000002e-07
-1.00933, -1.39158e-07
-0.99934, -1.50471e-07
-0.989347, -1.1365799999999998e-07
-0.979353, -1.18096e-07
-0.969359, -1.0521999999999999e-07
-0.959365, -1.03595e-07
-0.949371, -8.4095e-08
-0.939377, -7.05323e-08
-0.929383, -6.97198e-08
-0.919389, -6.23447e-08
-0.909395, -5.04695e-08
-0.899401, -2.43442e-08
-0.889407, -3.0969099999999996e-08
-0.879413, -3.340669999999999e-08
-0.86942, -2.22816e-08
-0.859426, -2.03133e-09
-0.849432, 6.40631e-09
-0.839438, 1.0906499999999999e-08
-0.829444, 9.53453e-09
-0.81945, 3.69662e-08
-0.809456, 3.6172399999999996e-08
-0.799462, 4.8885099999999996e-08
-0.789468, 5.60977e-08
-0.779474, 7.652929999999999e-08
-0.769481, 1.03617e-07
-0.759487, 1.0602999999999999e-07
-0.749493, 1.1749199999999999e-07
-0.739499, 1.3697999999999997e-07
-0.729505, 1.54881e-07
-0.719511, 1.69393e-07
-0.709517, 1.68659e-07
-0.699523, 1.9265899999999998e-07
-0.689529, 2.1265999999999997e-07
-0.679535, 2.2891e-07
-0.669541, 2.3128499999999997e-07
-0.659548, 2.47957e-07
-0.649554, 2.60473e-07
-0.63956, 2.7116e-07
-0.629566, 2.7947300000000003e-07
-0.619572, 2.79098e-07
-0.609578, 3.01973e-07
-0.599584, 3.1547399999999996e-07
-0.58959, 3.34224e-07
-0.579596, 3.24161e-07
-0.569602, 3.51349e-07
-0.559609, 3.60599e-07
-0.549615, 3.9191199999999997e-07
-0.539621, 3.68599e-07
-0.529627, 3.92475e-07
-0.519633, 4.02475e-07
-0.509639, 4.1935e-07
-0.499645, 4.16538e-07
-0.489651, 4.246e-07
-0.479657, 4.40726e-07
-0.469663, 4.62226e-07
-0.45967, 4.59538e-07
-0.449676, 4.6710099999999997e-07
-0.439682, 4.70664e-07
-0.429688, 5.02789e-07
-0.419694, 5.12352e-07
-0.4097, 5.04977e-07
-0.399706, 5.20164e-07
-0.389712, 5.383520000000001e-07
-0.379718, 5.5829e-07
-0.369724, 5.47852e-07
-0.359731, 5.54727e-07
-0.349737, 5.78165e-07
-0.339743, 5.8104e-07
-0.329749, 5.9004e-07
-0.319755, 5.84478e-07
-0.309761, 6.151029999999999e-07
-0.299767, 6.18916e-07
-0.289773, 6.32791e-07
-0.279779, 6.22666e-07
-0.269785, 6.562909999999999e-07
-0.259792, 6.486659999999999e-07
-0.249798, 6.79917e-07
-0.239804, 6.49104e-07
-0.22981, 6.96292e-07
-0.219816, 6.80729e-07
-0.209822, 7.22792e-07
-0.199828, 6.908539999999999e-07
-0.189834, 7.177299999999999e-07
-0.17984, 7.236669999999999e-07
-0.169846, 7.44668e-07
-0.159853, 7.331049999999999e-07
-0.149859, 7.465429999999999e-07
-0.139865, 7.5248e-07
-0.129871, 7.78418e-07
-0.119877, 7.654809999999999e-07
-0.109883, 7.752929999999999e-07
-0.0998891, 7.958559999999999e-07
-0.0898951, 8.08419e-07
-0.0799013, 8.305439999999999e-07
-0.0699075, 8.089809999999999e-07
-0.0599135, 8.30731e-07
-0.0499196, 8.352939999999999e-07
-0.0399256, 8.45357e-07
-0.0299316, 8.41419e-07
-0.019938, 8.35669e-07
-0.00994404, 8.664199999999999e-07
##END=$$ End of the data block
