##TITLE=Spectrum
##JCAMP-DX=5.00 $$ chemotion-converter-app (1.4.0)
##DATA TYPE=CYCLIC VOLTAMMETRY
##DATA CLASS=XYPOINTS
##ORIGIN=
##OWNER=
##XUNITS=Voltage in V
##YUNITS=Current in A
##DATE=27.4.2022
##SCAN_RATE=0.0999998
##STEP_SIZE=0.005
##CYCLES=10
##SOFTWARE_VERSION=7.8.6
##SOFTWARE=Framework
##VOLTAGE_LIMIT_END=-8.00000E-001
##SERIAL=IFC1010-28176
##FIRSTX=-8.05198E-001
##LASTX=-8.00264E-001
##MINX=-2.0004
##MAXX=2.2250738585072014e-308
##MINY=-0.000313432
##MAXY=2.2250738585072014e-308
##NPOINTS=480
##FIRSTY=-3.40568E-005
##XUNITS=Voltage in V
##YUNITS=Current in A
##XYPOINTS=(XY..XY)
-8.05198E-001, -3.40568E-005
-8.10225E-001, -3.56836E-005
-8.15213E-001, -3.66950E-005
-8.20220E-001, -3.74983E-005
-8.25208E-001, -3.81541E-005
-8.30213E-001, -3.85031E-005
-8.35210E-001, -3.93631E-005
-8.40203E-001, -3.95485E-005
-8.45193E-001, -3.99864E-005
-8.50203E-001, -4.03504E-005
-8.55198E-001, -4.08944E-005
-8.60208E-001, -4.09880E-005
-8.65206E-001, -4.11997E-005
-8.70193E-001, -4.14542E-005
-8.75230E-001, -4.16444E-005
-8.80218E-001, -4.23134E-005
-8.85227E-001, -4.21068E-005
-8.90221E-001, -4.22537E-005
-8.95226E-001, -4.25080E-005
-9.00246E-001, -4.28514E-005
-9.05242E-001, -4.25905E-005
-9.10242E-001, -4.31264E-005
-9.15233E-001, -4.33167E-005
-9.20215E-001, -4.36361E-005
-9.25242E-001, -4.36508E-005
-9.30238E-001, -4.35901E-005
-9.35257E-001, -4.44367E-005
-9.40246E-001, -4.47566E-005
-9.45231E-001, -4.45409E-005
-9.50228E-001, -4.49522E-005
-9.55248E-001, -4.55712E-005
-9.60224E-001, -4.52710E-005
-9.65241E-001, -4.59105E-005
-9.70215E-001, -4.64563E-005
-9.75246E-001, -4.71021E-005
-9.80259E-001, -4.68732E-005
-9.85254E-001, -4.67243E-005
-9.90260E-001, -4.75562E-005
-9.95224E-001, -4.79469E-005
-1.00023E+000, -4.83930E-005
-1.00522E+000, -4.84521E-005
-1.01021E+000, -4.87565E-005
-1.01524E+000, -4.91067E-005
-1.02023E+000, -4.92004E-005
-1.02522E+000, -4.99449E-005
-1.03022E+000, -5.01550E-005
-1.03523E+000, -5.01290E-005
-1.04023E+000, -5.07415E-005
-1.04521E+000, -5.01326E-005
-1.05020E+000, -5.07596E-005
-1.05521E+000, -5.09155E-005
-1.06020E+000, -5.09318E-005
-1.06522E+000, -5.10085E-005
-1.07021E+000, -5.09260E-005
-1.07520E+000, -5.13167E-005
-1.08025E+000, -5.13981E-005
-1.08522E+000, -5.12845E-005
-1.09024E+000, -5.15284E-005
-1.09524E+000, -5.17103E-005
-1.10023E+000, -5.14574E-005
-1.10526E+000, -5.14758E-005
-1.11025E+000, -5.17957E-005
-1.11525E+000, -5.20274E-005
-1.12025E+000, -5.16521E-005
-1.12524E+000, -5.17997E-005
-1.13026E+000, -5.18915E-005
-1.13526E+000, -5.16256E-005
-1.14032E+000, -5.17682E-005
-1.14531E+000, -5.13867E-005
-1.15029E+000, -5.13252E-005
-1.15530E+000, -5.07542E-005
-1.16030E+000, -5.02185E-005
-1.16529E+000, -5.01152E-005
-1.17030E+000, -4.98861E-005
-1.17528E+000, -4.97112E-005
-1.18032E+000, -4.94226E-005
-1.18531E+000, -4.86916E-005
-1.19030E+000, -4.85499E-005
-1.19530E+000, -4.83268E-005
-1.20029E+000, -4.81176E-005
-1.20530E+000, -4.79329E-005
-1.21028E+000, -4.74039E-005
-1.21528E+000, -4.76117E-005
-1.22029E+000, -4.73353E-005
-1.22527E+000, -4.68077E-005
-1.23027E+000, -4.69903E-005
-1.23529E+000, -4.64563E-005
-1.24029E+000, -4.60523E-005
-1.24530E+000, -4.58902E-005
-1.25029E+000, -4.61463E-005
-1.25528E+000, -4.52860E-005
-1.26031E+000, -4.55260E-005
-1.26529E+000, -4.55730E-005
-1.27031E+000, -4.52218E-005
-1.27530E+000, -4.52107E-005
-1.28028E+000, -4.52600E-005
-1.28530E+000, -4.57794E-005
-1.29030E+000, -4.56914E-005
-1.29532E+000, -4.55329E-005
-1.30030E+000, -4.61056E-005
-1.30527E+000, -4.59557E-005
-1.31030E+000, -4.61415E-005
-1.31530E+000, -4.64199E-005
-1.32030E+000, -4.72313E-005
-1.32530E+000, -4.75665E-005
-1.33030E+000, -4.81056E-005
-1.33531E+000, -4.79229E-005
-1.34030E+000, -4.84533E-005
-1.34532E+000, -4.87864E-005
-1.35029E+000, -4.88269E-005
-1.35529E+000, -4.95814E-005
-1.36030E+000, -4.97806E-005
-1.36530E+000, -5.07033E-005
-1.37030E+000, -5.11905E-005
-1.37531E+000, -5.12783E-005
-1.38029E+000, -5.23254E-005
-1.38533E+000, -5.31443E-005
-1.39031E+000, -5.34504E-005
-1.39530E+000, -5.40383E-005
-1.40032E+000, -5.47488E-005
-1.40531E+000, -5.55169E-005
-1.41030E+000, -5.65765E-005
-1.41530E+000, -5.71724E-005
-1.42030E+000, -5.83073E-005
-1.42532E+000, -5.91979E-005
-1.43031E+000, -5.97068E-005
-1.43529E+000, -6.04550E-005
-1.44029E+000, -6.14767E-005
-1.44529E+000, -6.22242E-005
-1.45028E+000, -6.29154E-005
-1.45528E+000, -6.37848E-005
-1.46026E+000, -6.48022E-005
-1.46529E+000, -6.61848E-005
-1.47027E+000, -6.73448E-005
-1.47529E+000, -6.80656E-005
-1.48029E+000, -6.87545E-005
-1.48528E+000, -7.02548E-005
-1.49029E+000, -7.13374E-005
-1.49529E+000, -7.28027E-005
-1.50037E+000, -7.40557E-005
-1.50536E+000, -7.53070E-005
-1.51032E+000, -7.70275E-005
-1.51535E+000, -7.83108E-005
-1.52032E+000, -7.96032E-005
-1.52536E+000, -8.17410E-005
-1.53035E+000, -8.29437E-005
-1.53534E+000, -8.50517E-005
-1.54036E+000, -8.66797E-005
-1.54537E+000, -8.85996E-005
-1.55039E+000, -9.03753E-005
-1.55537E+000, -9.19617E-005
-1.56035E+000, -9.36892E-005
-1.56537E+000, -9.60769E-005
-1.57036E+000, -9.81179E-005
-1.57536E+000, -1.00384E-004
-1.58036E+000, -1.02615E-004
-1.58535E+000, -1.04631E-004
-1.59039E+000, -1.06569E-004
-1.59539E+000, -1.08399E-004
-1.60036E+000, -1.11104E-004
-1.60538E+000, -1.13570E-004
-1.61036E+000, -1.15775E-004
-1.61537E+000, -1.18046E-004
-1.62035E+000, -1.20836E-004
-1.62535E+000, -1.23299E-004
-1.63035E+000, -1.25443E-004
-1.63536E+000, -1.27116E-004
-1.64037E+000, -1.29813E-004
-1.64532E+000, -1.32195E-004
-1.65033E+000, -1.35132E-004
-1.65534E+000, -1.38005E-004
-1.66032E+000, -1.40779E-004
-1.66535E+000, -1.43401E-004
-1.67033E+000, -1.45963E-004
-1.67531E+000, -1.49196E-004
-1.68033E+000, -1.51871E-004
-1.68534E+000, -1.54265E-004
-1.69031E+000, -1.56674E-004
-1.69534E+000, -1.58782E-004
-1.70033E+000, -1.61756E-004
-1.70534E+000, -1.64359E-004
-1.71034E+000, -1.66630E-004
-1.71532E+000, -1.69605E-004
-1.72034E+000, -1.72658E-004
-1.72533E+000, -1.75499E-004
-1.73034E+000, -1.78363E-004
-1.73534E+000, -1.80738E-004
-1.74032E+000, -1.83262E-004
-1.74537E+000, -1.85755E-004
-1.75034E+000, -1.88420E-004
-1.75535E+000, -1.91331E-004
-1.76035E+000, -1.94186E-004
-1.76535E+000, -1.96265E-004
-1.77035E+000, -1.98517E-004
-1.77536E+000, -2.00879E-004
-1.78035E+000, -2.03886E-004
-1.78534E+000, -2.06532E-004
-1.79036E+000, -2.09231E-004
-1.79539E+000, -2.12008E-004
-1.80038E+000, -2.14113E-004
-1.80536E+000, -2.16460E-004
-1.81035E+000, -2.18789E-004
-1.81534E+000, -2.21326E-004
-1.82035E+000, -2.24119E-004
-1.82535E+000, -2.26331E-004
-1.83034E+000, -2.28608E-004
-1.83535E+000, -2.30237E-004
-1.84034E+000, -2.32508E-004
-1.84535E+000, -2.34976E-004
-1.85033E+000, -2.36908E-004
-1.85533E+000, -2.39906E-004
-1.86038E+000, -2.42123E-004
-1.86537E+000, -2.44741E-004
-1.87039E+000, -2.47113E-004
-1.87538E+000, -2.48967E-004
-1.88038E+000, -2.51542E-004
-1.88538E+000, -2.54059E-004
-1.89039E+000, -2.56334E-004
-1.89538E+000, -2.58211E-004
-1.90039E+000, -2.60697E-004
-1.90539E+000, -2.63207E-004
-1.91040E+000, -2.65750E-004
-1.91539E+000, -2.67918E-004
-1.92037E+000, -2.70936E-004
-1.92538E+000, -2.72762E-004
-1.93039E+000, -2.75366E-004
-1.93538E+000, -2.78279E-004
-1.94038E+000, -2.80463E-004
-1.94538E+000, -2.82167E-004
-1.95040E+000, -2.83977E-004
-1.95536E+000, -2.86592E-004
-1.96039E+000, -2.90349E-004
-1.96540E+000, -2.93736E-004
-1.97038E+000, -2.96031E-004
-1.97540E+000, -2.99031E-004
-1.98040E+000, -3.01888E-004
-1.98540E+000, -3.04497E-004
-1.99039E+000, -3.07922E-004
-1.99539E+000, -3.10679E-004
-2.00040E+000, -3.13432E-004
-1.99544E+000, -3.02706E-004
-1.99044E+000, -2.93419E-004
-1.98543E+000, -2.86567E-004
-1.98044E+000, -2.79446E-004
-1.97544E+000, -2.73032E-004
-1.97043E+000, -2.67261E-004
-1.96543E+000, -2.62355E-004
-1.96046E+000, -2.58107E-004
-1.95543E+000, -2.53264E-004
-1.95044E+000, -2.47936E-004
-1.94544E+000, -2.43123E-004
-1.94043E+000, -2.38648E-004
-1.93545E+000, -2.33031E-004
-1.93044E+000, -2.28291E-004
-1.92545E+000, -2.23705E-004
-1.92042E+000, -2.18593E-004
-1.91544E+000, -2.14871E-004
-1.91045E+000, -2.11182E-004
-1.90542E+000, -2.07267E-004
-1.90045E+000, -2.03277E-004
-1.89542E+000, -2.00393E-004
-1.89043E+000, -1.96305E-004
-1.88544E+000, -1.92189E-004
-1.88043E+000, -1.88640E-004
-1.87542E+000, -1.85461E-004
-1.87043E+000, -1.81134E-004
-1.86543E+000, -1.76526E-004
-1.86045E+000, -1.72436E-004
-1.85537E+000, -1.69273E-004
-1.85037E+000, -1.65260E-004
-1.84539E+000, -1.61669E-004
-1.84037E+000, -1.58243E-004
-1.83541E+000, -1.54675E-004
-1.83040E+000, -1.51770E-004
-1.82540E+000, -1.48231E-004
-1.82041E+000, -1.44576E-004
-1.81539E+000, -1.41425E-004
-1.81040E+000, -1.38246E-004
-1.80539E+000, -1.34921E-004
-1.80042E+000, -1.32010E-004
-1.79541E+000, -1.29356E-004
-1.79041E+000, -1.26328E-004
-1.78541E+000, -1.23499E-004
-1.78039E+000, -1.21092E-004
-1.77541E+000, -1.17868E-004
-1.77039E+000, -1.14921E-004
-1.76537E+000, -1.12056E-004
-1.76040E+000, -1.09410E-004
-1.75543E+000, -1.06909E-004
-1.75040E+000, -1.03860E-004
-1.74541E+000, -1.01806E-004
-1.74037E+000, -9.95310E-005
-1.73537E+000, -9.75113E-005
-1.73039E+000, -9.53490E-005
-1.72538E+000, -9.30064E-005
-1.72040E+000, -9.03557E-005
-1.71538E+000, -8.79990E-005
-1.71040E+000, -8.57276E-005
-1.70539E+000, -8.33321E-005
-1.70039E+000, -8.16919E-005
-1.69541E+000, -7.96960E-005
-1.69036E+000, -7.76811E-005
-1.68538E+000, -7.54820E-005
-1.68039E+000, -7.33521E-005
-1.67537E+000, -7.17820E-005
-1.67037E+000, -7.00607E-005
-1.66540E+000, -6.85067E-005
-1.66037E+000, -6.66965E-005
-1.65538E+000, -6.49433E-005
-1.65038E+000, -6.36723E-005
-1.64537E+000, -6.25802E-005
-1.64040E+000, -6.08714E-005
-1.63540E+000, -5.94989E-005
-1.63041E+000, -5.82515E-005
-1.62541E+000, -5.67897E-005
-1.62041E+000, -5.55364E-005
-1.61542E+000, -5.49934E-005
-1.61039E+000, -5.42628E-005
-1.60542E+000, -5.30594E-005
-1.60041E+000, -5.20785E-005
-1.59543E+000, -5.11760E-005
-1.59044E+000, -5.10033E-005
-1.58541E+000, -5.03379E-005
-1.58040E+000, -4.91685E-005
-1.57539E+000, -4.88210E-005
-1.57041E+000, -4.86058E-005
-1.56541E+000, -4.78884E-005
-1.56039E+000, -4.75274E-005
-1.55541E+000, -4.70681E-005
-1.55042E+000, -4.67862E-005
-1.54541E+000, -4.64450E-005
-1.54040E+000, -4.60684E-005
-1.53538E+000, -4.58730E-005
-1.53039E+000, -4.61367E-005
-1.52541E+000, -4.59524E-005
-1.52038E+000, -4.57239E-005
-1.51541E+000, -4.59073E-005
-1.51039E+000, -4.60356E-005
-1.50542E+000, -4.59536E-005
-1.50041E+000, -4.60664E-005
-1.49535E+000, -4.59947E-005
-1.49036E+000, -4.59370E-005
-1.48532E+000, -4.60836E-005
-1.48033E+000, -4.61238E-005
-1.47534E+000, -4.61238E-005
-1.47032E+000, -4.62994E-005
-1.46534E+000, -4.61281E-005
-1.46032E+000, -4.62752E-005
-1.45534E+000, -4.60130E-005
-1.45034E+000, -4.61078E-005
-1.44535E+000, -4.63667E-005
-1.44034E+000, -4.59939E-005
-1.43536E+000, -4.61998E-005
-1.43035E+000, -4.63843E-005
-1.42536E+000, -4.60285E-005
-1.42034E+000, -4.66779E-005
-1.41534E+000, -4.66202E-005
-1.41033E+000, -4.63338E-005
-1.40533E+000, -4.59152E-005
-1.40035E+000, -4.60222E-005
-1.39534E+000, -4.59512E-005
-1.39034E+000, -4.57740E-005
-1.38537E+000, -4.58031E-005
-1.38034E+000, -4.56037E-005
-1.37534E+000, -4.56639E-005
-1.37033E+000, -4.48799E-005
-1.36533E+000, -4.49782E-005
-1.36035E+000, -4.47042E-005
-1.35534E+000, -4.43632E-005
-1.35034E+000, -4.42058E-005
-1.34536E+000, -4.37882E-005
-1.34037E+000, -4.36602E-005
-1.33536E+000, -4.35149E-005
-1.33035E+000, -4.34283E-005
-1.32534E+000, -4.28471E-005
-1.32035E+000, -4.22904E-005
-1.31532E+000, -4.23206E-005
-1.31035E+000, -4.19979E-005
-1.30534E+000, -4.20339E-005
-1.30034E+000, -4.10803E-005
-1.29534E+000, -4.05502E-005
-1.29034E+000, -4.06779E-005
-1.28535E+000, -4.00339E-005
-1.28032E+000, -3.98238E-005
-1.27533E+000, -3.92725E-005
-1.27033E+000, -3.98892E-005
-1.26532E+000, -3.91167E-005
-1.26034E+000, -3.85756E-005
-1.25531E+000, -3.80492E-005
-1.25032E+000, -3.81298E-005
-1.24533E+000, -3.71124E-005
-1.24033E+000, -3.63802E-005
-1.23533E+000, -3.67312E-005
-1.23033E+000, -3.60713E-005
-1.22533E+000, -3.60429E-005
-1.22035E+000, -3.62294E-005
-1.21534E+000, -3.66454E-005
-1.21034E+000, -3.52482E-005
-1.20534E+000, -3.52456E-005
-1.20033E+000, -3.42337E-005
-1.19536E+000, -3.44970E-005
-1.19035E+000, -3.48686E-005
-1.18536E+000, -3.36074E-005
-1.18036E+000, -3.33810E-005
-1.17533E+000, -3.32660E-005
-1.17034E+000, -3.31267E-005
-1.16531E+000, -3.29866E-005
-1.16034E+000, -3.24903E-005
-1.15536E+000, -3.23412E-005
-1.15033E+000, -3.22253E-005
-1.14534E+000, -3.15910E-005
-1.14036E+000, -3.14770E-005
-1.13529E+000, -3.16179E-005
-1.13027E+000, -3.14905E-005
-1.12525E+000, -3.19355E-005
-1.12028E+000, -3.15979E-005
-1.11528E+000, -3.13788E-005
-1.11028E+000, -3.18571E-005
-1.10530E+000, -3.16914E-005
-1.10027E+000, -3.23218E-005
-1.09528E+000, -3.24737E-005
-1.09028E+000, -3.25234E-005
-1.08527E+000, -3.23763E-005
-1.08029E+000, -3.34566E-005
-1.07526E+000, -3.31586E-005
-1.07026E+000, -3.30952E-005
-1.06527E+000, -3.32024E-005
-1.06026E+000, -3.37695E-005
-1.05526E+000, -3.39898E-005
-1.05024E+000, -3.47044E-005
-1.04527E+000, -3.46899E-005
-1.04027E+000, -3.49774E-005
-1.03527E+000, -3.53603E-005
-1.03027E+000, -3.56930E-005
-1.02528E+000, -3.57432E-005
-1.02027E+000, -3.54256E-005
-1.01529E+000, -3.54618E-005
-1.01027E+000, -3.53133E-005
-1.00528E+000, -3.53315E-005
-1.00029E+000, -3.64002E-005
-9.95266E-001, -3.67321E-005
-9.90304E-001, -3.71084E-005
-9.85295E-001, -3.68852E-005
-9.80299E-001, -3.67722E-005
-9.75309E-001, -3.64174E-005
-9.70278E-001, -3.70296E-005
-9.65298E-001, -3.71872E-005
-9.60260E-001, -3.74467E-005
-9.55282E-001, -3.80409E-005
-9.50303E-001, -3.77194E-005
-9.45280E-001, -3.68615E-005
-9.40279E-001, -3.75631E-005
-9.35299E-001, -3.78650E-005
-9.30274E-001, -3.72375E-005
-9.25263E-001, -3.76372E-005
-9.20250E-001, -3.77150E-005
-9.15265E-001, -3.71968E-005
-9.10278E-001, -3.70687E-005
-9.05270E-001, -3.69028E-005
-9.00272E-001, -3.68115E-005
-8.95261E-001, -3.64539E-005
-8.90264E-001, -3.67938E-005
-8.85264E-001, -3.69875E-005
-8.80270E-001, -3.58190E-005
-8.75282E-001, -3.60884E-005
-8.70230E-001, -3.57102E-005
-8.65253E-001, -3.54200E-005
-8.60252E-001, -3.47807E-005
-8.55244E-001, -3.51066E-005
-8.50244E-001, -3.43505E-005
-8.45225E-001, -3.37405E-005
-8.40253E-001, -3.33224E-005
-8.35265E-001, -3.30598E-005
-8.30253E-001, -3.31644E-005
-8.25253E-001, -3.22778E-005
-8.20266E-001, -3.17258E-005
-8.15258E-001, -3.07748E-005
-8.10258E-001, -3.05100E-005
-8.05253E-001, -3.00995E-005
-8.00264E-001, -3.00833E-005
##END=$$ End of the data block
