##TITLE=Spectrum
##JCAMP-DX=5.00 $$ chemotion-converter-app (1.4.0)
##DATA TYPE=CYCLIC VOLTAMMETRY
##DATA CLASS=XYPOINTS
##ORIGIN=
##OWNER=
##XUNITS=Voltage in V
##YUNITS=Current in A
##DATE=27.4.2022
##SCAN_RATE=0.0999998
##STEP_SIZE=0.005
##CYCLES=10
##SOFTWARE_VERSION=7.8.6
##SOFTWARE=Framework
##VOLTAGE_LIMIT_END=-8.00000E-001
##SERIAL=IFC1010-28176
##FIRSTX=-8.05184E-001
##LASTX=-8.00260E-001
##MINX=-2.00039
##MAXX=2.2250738585072014e-308
##MINY=-0.000386735
##MAXY=2.2250738585072014e-308
##NPOINTS=480
##FIRSTY=-4.15632E-005
##XUNITS=Voltage in V
##YUNITS=Current in A
##XYPOINTS=(XY..XY)
-8.05184E-001, -4.15632E-005
-8.10223E-001, -4.30109E-005
-8.15212E-001, -4.44741E-005
-8.20217E-001, -4.48189E-005
-8.25211E-001, -4.58275E-005
-8.30217E-001, -4.65916E-005
-8.35227E-001, -4.71500E-005
-8.40208E-001, -4.81324E-005
-8.45205E-001, -4.81981E-005
-8.50204E-001, -4.79625E-005
-8.55197E-001, -4.86085E-005
-8.60208E-001, -4.91800E-005
-8.65216E-001, -4.99096E-005
-8.70197E-001, -4.97577E-005
-8.75234E-001, -5.00431E-005
-8.80224E-001, -4.98475E-005
-8.85228E-001, -5.00856E-005
-8.90233E-001, -5.03462E-005
-8.95221E-001, -5.04302E-005
-9.00232E-001, -5.04209E-005
-9.05224E-001, -5.09337E-005
-9.10230E-001, -5.04257E-005
-9.15221E-001, -5.02833E-005
-9.20211E-001, -5.01697E-005
-9.25232E-001, -5.06729E-005
-9.30236E-001, -5.06728E-005
-9.35248E-001, -5.05140E-005
-9.40239E-001, -5.04927E-005
-9.45228E-001, -5.07407E-005
-9.50236E-001, -5.04174E-005
-9.55240E-001, -5.03620E-005
-9.60233E-001, -5.03527E-005
-9.65237E-001, -5.05839E-005
-9.70209E-001, -5.03223E-005
-9.75262E-001, -5.04577E-005
-9.80251E-001, -4.99507E-005
-9.85240E-001, -5.02192E-005
-9.90250E-001, -4.98309E-005
-9.95213E-001, -5.00350E-005
-1.00024E+000, -5.02067E-005
-1.00523E+000, -5.01683E-005
-1.01022E+000, -4.99713E-005
-1.01525E+000, -5.01186E-005
-1.02023E+000, -4.96025E-005
-1.02523E+000, -4.95165E-005
-1.03022E+000, -4.96187E-005
-1.03524E+000, -4.96455E-005
-1.04023E+000, -4.97613E-005
-1.04522E+000, -4.93802E-005
-1.05020E+000, -4.89525E-005
-1.05523E+000, -4.90007E-005
-1.06022E+000, -4.90668E-005
-1.06522E+000, -4.91668E-005
-1.07021E+000, -4.89839E-005
-1.07520E+000, -4.91052E-005
-1.08023E+000, -4.86594E-005
-1.08522E+000, -4.88591E-005
-1.09022E+000, -4.88282E-005
-1.09522E+000, -4.88736E-005
-1.10021E+000, -4.88194E-005
-1.10523E+000, -4.90482E-005
-1.11024E+000, -4.88561E-005
-1.11524E+000, -4.90462E-005
-1.12023E+000, -4.88809E-005
-1.12521E+000, -4.92180E-005
-1.13024E+000, -4.84354E-005
-1.13524E+000, -4.88096E-005
-1.14031E+000, -4.89558E-005
-1.14529E+000, -4.84107E-005
-1.15027E+000, -4.86828E-005
-1.15529E+000, -4.91060E-005
-1.16029E+000, -4.89362E-005
-1.16527E+000, -4.92779E-005
-1.17029E+000, -4.91313E-005
-1.17528E+000, -4.93826E-005
-1.18032E+000, -4.94894E-005
-1.18532E+000, -4.97702E-005
-1.19031E+000, -4.92574E-005
-1.19530E+000, -4.97003E-005
-1.20028E+000, -4.93877E-005
-1.20529E+000, -4.98602E-005
-1.21028E+000, -4.93271E-005
-1.21528E+000, -4.96283E-005
-1.22030E+000, -5.00617E-005
-1.22529E+000, -5.03459E-005
-1.23028E+000, -5.05483E-005
-1.23528E+000, -5.05489E-005
-1.24029E+000, -5.03775E-005
-1.24528E+000, -5.05193E-005
-1.25028E+000, -5.11164E-005
-1.25527E+000, -5.07648E-005
-1.26029E+000, -5.12763E-005
-1.26527E+000, -5.11677E-005
-1.27029E+000, -5.14916E-005
-1.27526E+000, -5.10905E-005
-1.28027E+000, -5.11579E-005
-1.28531E+000, -5.11355E-005
-1.29029E+000, -5.14771E-005
-1.29531E+000, -5.16808E-005
-1.30029E+000, -5.13100E-005
-1.30527E+000, -5.19181E-005
-1.31030E+000, -5.15488E-005
-1.31528E+000, -5.19188E-005
-1.32030E+000, -5.22172E-005
-1.32529E+000, -5.21747E-005
-1.33029E+000, -5.23364E-005
-1.33531E+000, -5.25947E-005
-1.34031E+000, -5.24806E-005
-1.34532E+000, -5.28008E-005
-1.35030E+000, -5.32160E-005
-1.35530E+000, -5.32268E-005
-1.36030E+000, -5.34766E-005
-1.36530E+000, -5.40372E-005
-1.37029E+000, -5.37780E-005
-1.37531E+000, -5.46127E-005
-1.38029E+000, -5.47943E-005
-1.38533E+000, -5.56164E-005
-1.39033E+000, -5.58714E-005
-1.39531E+000, -5.62617E-005
-1.40033E+000, -5.66462E-005
-1.40531E+000, -5.78836E-005
-1.41031E+000, -5.82916E-005
-1.41531E+000, -5.89627E-005
-1.42031E+000, -5.93377E-005
-1.42533E+000, -6.03193E-005
-1.43031E+000, -6.13092E-005
-1.43530E+000, -6.20233E-005
-1.44029E+000, -6.30719E-005
-1.44529E+000, -6.42447E-005
-1.45030E+000, -6.53164E-005
-1.45529E+000, -6.62218E-005
-1.46027E+000, -6.71274E-005
-1.46529E+000, -6.87456E-005
-1.47027E+000, -7.03430E-005
-1.47528E+000, -7.17316E-005
-1.48028E+000, -7.33489E-005
-1.48528E+000, -7.48858E-005
-1.49030E+000, -7.63473E-005
-1.49529E+000, -7.78233E-005
-1.50036E+000, -7.96526E-005
-1.50536E+000, -8.14603E-005
-1.51032E+000, -8.26787E-005
-1.51535E+000, -8.48596E-005
-1.52034E+000, -8.67241E-005
-1.52536E+000, -8.89329E-005
-1.53035E+000, -9.08846E-005
-1.53535E+000, -9.30933E-005
-1.54036E+000, -9.45880E-005
-1.54536E+000, -9.71484E-005
-1.55037E+000, -9.92532E-005
-1.55537E+000, -1.01069E-004
-1.56035E+000, -1.03411E-004
-1.56537E+000, -1.05809E-004
-1.57035E+000, -1.08295E-004
-1.57535E+000, -1.10820E-004
-1.58036E+000, -1.13876E-004
-1.58533E+000, -1.16068E-004
-1.59039E+000, -1.18090E-004
-1.59539E+000, -1.20636E-004
-1.60037E+000, -1.23328E-004
-1.60536E+000, -1.25903E-004
-1.61035E+000, -1.28995E-004
-1.61536E+000, -1.31788E-004
-1.62036E+000, -1.34716E-004
-1.62536E+000, -1.37819E-004
-1.63037E+000, -1.40943E-004
-1.63535E+000, -1.44560E-004
-1.64034E+000, -1.47573E-004
-1.64533E+000, -1.50584E-004
-1.65032E+000, -1.53474E-004
-1.65534E+000, -1.57170E-004
-1.66032E+000, -1.59735E-004
-1.66534E+000, -1.63402E-004
-1.67034E+000, -1.67011E-004
-1.67531E+000, -1.70164E-004
-1.68032E+000, -1.72946E-004
-1.68533E+000, -1.76854E-004
-1.69030E+000, -1.80332E-004
-1.69534E+000, -1.84044E-004
-1.70033E+000, -1.88058E-004
-1.70535E+000, -1.91640E-004
-1.71035E+000, -1.95395E-004
-1.71532E+000, -1.98314E-004
-1.72034E+000, -2.00997E-004
-1.72534E+000, -2.04710E-004
-1.73035E+000, -2.08320E-004
-1.73532E+000, -2.11777E-004
-1.74033E+000, -2.15304E-004
-1.74535E+000, -2.19161E-004
-1.75035E+000, -2.22958E-004
-1.75535E+000, -2.26657E-004
-1.76034E+000, -2.30418E-004
-1.76534E+000, -2.33972E-004
-1.77034E+000, -2.37220E-004
-1.77534E+000, -2.40853E-004
-1.78034E+000, -2.43857E-004
-1.78533E+000, -2.46868E-004
-1.79034E+000, -2.50649E-004
-1.79537E+000, -2.54081E-004
-1.80036E+000, -2.57951E-004
-1.80534E+000, -2.61675E-004
-1.81034E+000, -2.64722E-004
-1.81534E+000, -2.68270E-004
-1.82035E+000, -2.71361E-004
-1.82535E+000, -2.74755E-004
-1.83035E+000, -2.77922E-004
-1.83536E+000, -2.81372E-004
-1.84034E+000, -2.85269E-004
-1.84534E+000, -2.88171E-004
-1.85033E+000, -2.91159E-004
-1.85533E+000, -2.95479E-004
-1.86039E+000, -2.98816E-004
-1.86536E+000, -3.02951E-004
-1.87038E+000, -3.06032E-004
-1.87538E+000, -3.08413E-004
-1.88036E+000, -3.11712E-004
-1.88537E+000, -3.15447E-004
-1.89037E+000, -3.17831E-004
-1.89537E+000, -3.20668E-004
-1.90039E+000, -3.24238E-004
-1.90537E+000, -3.27835E-004
-1.91039E+000, -3.30274E-004
-1.91539E+000, -3.32649E-004
-1.92036E+000, -3.36243E-004
-1.92537E+000, -3.40369E-004
-1.93038E+000, -3.43963E-004
-1.93540E+000, -3.45946E-004
-1.94037E+000, -3.48040E-004
-1.94537E+000, -3.50767E-004
-1.95040E+000, -3.53757E-004
-1.95538E+000, -3.57277E-004
-1.96040E+000, -3.61465E-004
-1.96540E+000, -3.63358E-004
-1.97038E+000, -3.65977E-004
-1.97538E+000, -3.69518E-004
-1.98040E+000, -3.72953E-004
-1.98538E+000, -3.76118E-004
-1.99038E+000, -3.79406E-004
-1.99538E+000, -3.83547E-004
-2.00039E+000, -3.86735E-004
-1.99544E+000, -3.72121E-004
-1.99044E+000, -3.60264E-004
-1.98544E+000, -3.50112E-004
-1.98044E+000, -3.41029E-004
-1.97545E+000, -3.33733E-004
-1.97041E+000, -3.26362E-004
-1.96544E+000, -3.18725E-004
-1.96046E+000, -3.11359E-004
-1.95544E+000, -3.04979E-004
-1.95044E+000, -2.98978E-004
-1.94543E+000, -2.92610E-004
-1.94044E+000, -2.86470E-004
-1.93545E+000, -2.80660E-004
-1.93044E+000, -2.75585E-004
-1.92544E+000, -2.70848E-004
-1.92043E+000, -2.65609E-004
-1.91543E+000, -2.59685E-004
-1.91045E+000, -2.54177E-004
-1.90542E+000, -2.48599E-004
-1.90044E+000, -2.44391E-004
-1.89541E+000, -2.39887E-004
-1.89041E+000, -2.35064E-004
-1.88543E+000, -2.30461E-004
-1.88043E+000, -2.25073E-004
-1.87543E+000, -2.19878E-004
-1.87041E+000, -2.14999E-004
-1.86541E+000, -2.10192E-004
-1.86042E+000, -2.05312E-004
-1.85535E+000, -2.00961E-004
-1.85039E+000, -1.96520E-004
-1.84540E+000, -1.91868E-004
-1.84038E+000, -1.87190E-004
-1.83540E+000, -1.82189E-004
-1.83039E+000, -1.78023E-004
-1.82540E+000, -1.73254E-004
-1.82039E+000, -1.68310E-004
-1.81539E+000, -1.64211E-004
-1.81041E+000, -1.59868E-004
-1.80541E+000, -1.55633E-004
-1.80042E+000, -1.51224E-004
-1.79542E+000, -1.46822E-004
-1.79040E+000, -1.42019E-004
-1.78541E+000, -1.37668E-004
-1.78038E+000, -1.33709E-004
-1.77541E+000, -1.30487E-004
-1.77041E+000, -1.26224E-004
-1.76538E+000, -1.22458E-004
-1.76039E+000, -1.18701E-004
-1.75541E+000, -1.14472E-004
-1.75039E+000, -1.10840E-004
-1.74540E+000, -1.07845E-004
-1.74038E+000, -1.04826E-004
-1.73538E+000, -1.01518E-004
-1.73038E+000, -9.80527E-005
-1.72539E+000, -9.55249E-005
-1.72037E+000, -9.21777E-005
-1.71537E+000, -8.89265E-005
-1.71040E+000, -8.56687E-005
-1.70540E+000, -8.29294E-005
-1.70039E+000, -8.04853E-005
-1.69542E+000, -7.80623E-005
-1.69036E+000, -7.60600E-005
-1.68537E+000, -7.40560E-005
-1.68038E+000, -7.16782E-005
-1.67537E+000, -6.98911E-005
-1.67037E+000, -6.78922E-005
-1.66539E+000, -6.64260E-005
-1.66037E+000, -6.44564E-005
-1.65537E+000, -6.25684E-005
-1.65038E+000, -6.06155E-005
-1.64539E+000, -5.93956E-005
-1.64041E+000, -5.82453E-005
-1.63540E+000, -5.71373E-005
-1.63040E+000, -5.56884E-005
-1.62539E+000, -5.46840E-005
-1.62040E+000, -5.35866E-005
-1.61539E+000, -5.27672E-005
-1.61039E+000, -5.18190E-005
-1.60541E+000, -5.11591E-005
-1.60041E+000, -5.04084E-005
-1.59541E+000, -4.98707E-005
-1.59043E+000, -4.91452E-005
-1.58540E+000, -4.87813E-005
-1.58039E+000, -4.83150E-005
-1.57539E+000, -4.78476E-005
-1.57040E+000, -4.72192E-005
-1.56541E+000, -4.68661E-005
-1.56038E+000, -4.63548E-005
-1.55540E+000, -4.63504E-005
-1.55042E+000, -4.58985E-005
-1.54542E+000, -4.55209E-005
-1.54042E+000, -4.52070E-005
-1.53538E+000, -4.50025E-005
-1.53039E+000, -4.48897E-005
-1.52541E+000, -4.49364E-005
-1.52038E+000, -4.48261E-005
-1.51541E+000, -4.48489E-005
-1.51039E+000, -4.46861E-005
-1.50541E+000, -4.44885E-005
-1.50040E+000, -4.44627E-005
-1.49534E+000, -4.44915E-005
-1.49036E+000, -4.44210E-005
-1.48533E+000, -4.44702E-005
-1.48034E+000, -4.43240E-005
-1.47537E+000, -4.45785E-005
-1.47033E+000, -4.44054E-005
-1.46534E+000, -4.45182E-005
-1.46033E+000, -4.44900E-005
-1.45534E+000, -4.47772E-005
-1.45034E+000, -4.51236E-005
-1.44534E+000, -4.50563E-005
-1.44032E+000, -4.52183E-005
-1.43534E+000, -4.53263E-005
-1.43035E+000, -4.57011E-005
-1.42535E+000, -4.56158E-005
-1.42034E+000, -4.59051E-005
-1.41535E+000, -4.64735E-005
-1.41034E+000, -4.60292E-005
-1.40534E+000, -4.64396E-005
-1.40035E+000, -4.63927E-005
-1.39535E+000, -4.70322E-005
-1.39035E+000, -4.69180E-005
-1.38537E+000, -4.65950E-005
-1.38034E+000, -4.61635E-005
-1.37536E+000, -4.65557E-005
-1.37034E+000, -4.65172E-005
-1.36535E+000, -4.62360E-005
-1.36035E+000, -4.59587E-005
-1.35533E+000, -4.58667E-005
-1.35034E+000, -4.59484E-005
-1.34536E+000, -4.54351E-005
-1.34035E+000, -4.51895E-005
-1.33534E+000, -4.53230E-005
-1.33033E+000, -4.51910E-005
-1.32534E+000, -4.52944E-005
-1.32034E+000, -4.51081E-005
-1.31533E+000, -4.49867E-005
-1.31035E+000, -4.45545E-005
-1.30532E+000, -4.46031E-005
-1.30032E+000, -4.46015E-005
-1.29534E+000, -4.47390E-005
-1.29034E+000, -4.39337E-005
-1.28535E+000, -4.37269E-005
-1.28031E+000, -4.39144E-005
-1.27533E+000, -4.36643E-005
-1.27035E+000, -4.38199E-005
-1.26534E+000, -4.37745E-005
-1.26035E+000, -4.37808E-005
-1.25532E+000, -4.34770E-005
-1.25034E+000, -4.34020E-005
-1.24534E+000, -4.33081E-005
-1.24034E+000, -4.33437E-005
-1.23534E+000, -4.35072E-005
-1.23033E+000, -4.28677E-005
-1.22534E+000, -4.31923E-005
-1.22034E+000, -4.35620E-005
-1.21533E+000, -4.38700E-005
-1.21032E+000, -4.30772E-005
-1.20532E+000, -4.34302E-005
-1.20031E+000, -4.27989E-005
-1.19533E+000, -4.26747E-005
-1.19032E+000, -4.27050E-005
-1.18535E+000, -4.28264E-005
-1.18037E+000, -4.29628E-005
-1.17532E+000, -4.29139E-005
-1.17034E+000, -4.26764E-005
-1.16532E+000, -4.28515E-005
-1.16034E+000, -4.25981E-005
-1.15535E+000, -4.21694E-005
-1.15033E+000, -4.27417E-005
-1.14533E+000, -4.25825E-005
-1.14034E+000, -4.24232E-005
-1.13528E+000, -4.26881E-005
-1.13027E+000, -4.26079E-005
-1.12524E+000, -4.18469E-005
-1.12028E+000, -4.16624E-005
-1.11527E+000, -4.18766E-005
-1.11027E+000, -4.22495E-005
-1.10528E+000, -4.21656E-005
-1.10027E+000, -4.20282E-005
-1.09528E+000, -4.22405E-005
-1.09028E+000, -4.22835E-005
-1.08529E+000, -4.19334E-005
-1.08030E+000, -4.17159E-005
-1.07526E+000, -4.21080E-005
-1.07026E+000, -4.21300E-005
-1.06527E+000, -4.15631E-005
-1.06027E+000, -4.16347E-005
-1.05526E+000, -4.18119E-005
-1.05026E+000, -4.19887E-005
-1.04529E+000, -4.17028E-005
-1.04030E+000, -4.18757E-005
-1.03528E+000, -4.16857E-005
-1.03027E+000, -4.11718E-005
-1.02526E+000, -4.11282E-005
-1.02025E+000, -4.12478E-005
-1.01527E+000, -4.12626E-005
-1.01026E+000, -4.10706E-005
-1.00526E+000, -4.08868E-005
-1.00027E+000, -4.14985E-005
-9.95251E-001, -3.98676E-005
-9.90287E-001, -4.01719E-005
-9.85279E-001, -4.01600E-005
-9.80295E-001, -4.04516E-005
-9.75301E-001, -4.05032E-005
-9.70267E-001, -4.01500E-005
-9.65285E-001, -3.99702E-005
-9.60266E-001, -3.98483E-005
-9.55292E-001, -3.96624E-005
-9.50303E-001, -3.89958E-005
-9.45277E-001, -3.95806E-005
-9.40286E-001, -3.93939E-005
-9.35304E-001, -3.97020E-005
-9.30285E-001, -3.92057E-005
-9.25275E-001, -3.91054E-005
-9.20263E-001, -3.89650E-005
-9.15275E-001, -3.93279E-005
-9.10275E-001, -3.89319E-005
-9.05264E-001, -3.87323E-005
-9.00271E-001, -3.91185E-005
-8.95247E-001, -3.90181E-005
-8.90252E-001, -3.85078E-005
-8.85247E-001, -3.83046E-005
-8.80262E-001, -3.81812E-005
-8.75289E-001, -3.82945E-005
-8.70248E-001, -3.80434E-005
-8.65265E-001, -3.78013E-005
-8.60275E-001, -3.70957E-005
-8.55262E-001, -3.66581E-005
-8.50256E-001, -3.68189E-005
-8.45243E-001, -3.63852E-005
-8.40256E-001, -3.63867E-005
-8.35265E-001, -3.59657E-005
-8.30254E-001, -3.54635E-005
-8.25263E-001, -3.50704E-005
-8.20274E-001, -3.45628E-005
-8.15263E-001, -3.44894E-005
-8.10270E-001, -3.30246E-005
-8.05251E-001, -3.30883E-005
-8.00260E-001, -3.28866E-005
##END=$$ End of the data block
