##TITLE=Spectrum
##JCAMP-DX=5.00 $$ chemotion-converter-app (1.6.2)
##DATA TYPE=CYCLIC VOLTAMMETRY
##DATA CLASS=XYPOINTS
##ORIGIN=
##OWNER=
##XUNITS=Voltage in V
##YUNITS=Current in A
##DATE=27.4.2022
##SCAN_RATE=0.0999998
##STEP_SIZE=0.005
##CYCLES=10
##SOFTWARE_VERSION=7.8.6
##SOFTWARE=Framework
##VOLTAGE_LIMIT_END=-8.00000E-001
##SERIAL=IFC1010-28176
##FIRSTX=-8.05189E-001
##LASTX=-8.00259E-001
##MINX=-2.0004
##MAXX=2.2250738585072014e-308
##MINY=-0.000408087
##MAXY=2.2250738585072014e-308
##NPOINTS=480
##FIRSTY=-3.82135E-005
##XUNITS=Voltage in V
##YUNITS=Current in A
##XYPOINTS=(XY..XY)
-8.05189E-001, -3.82135E-005
-8.10198E-001, -3.99528E-005
-8.15200E-001, -4.07172E-005
-8.20213E-001, -4.19190E-005
-8.25201E-001, -4.27771E-005
-8.30212E-001, -4.29871E-005
-8.35229E-001, -4.36262E-005
-8.40204E-001, -4.40751E-005
-8.45210E-001, -4.42106E-005
-8.50217E-001, -4.47496E-005
-8.55208E-001, -4.50187E-005
-8.60202E-001, -4.53324E-005
-8.65201E-001, -4.54943E-005
-8.70189E-001, -4.56540E-005
-8.75225E-001, -4.63696E-005
-8.80211E-001, -4.61222E-005
-8.85212E-001, -4.65856E-005
-8.90219E-001, -4.65435E-005
-8.95210E-001, -4.67763E-005
-9.00229E-001, -4.67850E-005
-9.05227E-001, -4.70689E-005
-9.10232E-001, -4.71082E-005
-9.15219E-001, -4.74230E-005
-9.20204E-001, -4.73085E-005
-9.25229E-001, -4.78504E-005
-9.30230E-001, -4.81349E-005
-9.35234E-001, -4.78828E-005
-9.40223E-001, -4.79573E-005
-9.45232E-001, -4.81814E-005
-9.50241E-001, -4.82006E-005
-9.55232E-001, -4.80800E-005
-9.60228E-001, -4.83585E-005
-9.65241E-001, -4.86654E-005
-9.70222E-001, -4.89417E-005
-9.75278E-001, -4.89508E-005
-9.80276E-001, -4.87928E-005
-9.85251E-001, -4.89045E-005
-9.90243E-001, -4.90330E-005
-9.95196E-001, -4.89566E-005
-1.00023E+000, -4.93389E-005
-1.00523E+000, -4.93683E-005
-1.01022E+000, -4.93397E-005
-1.01523E+000, -4.94875E-005
-1.02023E+000, -4.95309E-005
-1.02523E+000, -4.95416E-005
-1.03023E+000, -4.99084E-005
-1.03523E+000, -5.01429E-005
-1.04023E+000, -5.01358E-005
-1.04523E+000, -5.03530E-005
-1.05020E+000, -5.01939E-005
-1.05522E+000, -5.02184E-005
-1.06021E+000, -5.05875E-005
-1.06522E+000, -5.04503E-005
-1.07023E+000, -5.04677E-005
-1.07521E+000, -5.11323E-005
-1.08024E+000, -5.08154E-005
-1.08523E+000, -5.10562E-005
-1.09024E+000, -5.09267E-005
-1.09522E+000, -5.12120E-005
-1.10022E+000, -5.09118E-005
-1.10525E+000, -5.10426E-005
-1.11025E+000, -5.11858E-005
-1.11525E+000, -5.15462E-005
-1.12024E+000, -5.16491E-005
-1.12522E+000, -5.20641E-005
-1.13023E+000, -5.21526E-005
-1.13523E+000, -5.20687E-005
-1.14030E+000, -5.20333E-005
-1.14528E+000, -5.20846E-005
-1.15028E+000, -5.23205E-005
-1.15531E+000, -5.19870E-005
-1.16030E+000, -5.21261E-005
-1.16528E+000, -5.24278E-005
-1.17030E+000, -5.24466E-005
-1.17529E+000, -5.21959E-005
-1.18032E+000, -5.22554E-005
-1.18531E+000, -5.24004E-005
-1.19030E+000, -5.23016E-005
-1.19530E+000, -5.22160E-005
-1.20028E+000, -5.23365E-005
-1.20530E+000, -5.27426E-005
-1.21029E+000, -5.27063E-005
-1.21528E+000, -5.23931E-005
-1.22030E+000, -5.29278E-005
-1.22529E+000, -5.24617E-005
-1.23028E+000, -5.26665E-005
-1.23530E+000, -5.28243E-005
-1.24030E+000, -5.26777E-005
-1.24529E+000, -5.32668E-005
-1.25028E+000, -5.28347E-005
-1.25527E+000, -5.29815E-005
-1.26031E+000, -5.23374E-005
-1.26531E+000, -5.25144E-005
-1.27030E+000, -5.26413E-005
-1.27529E+000, -5.27152E-005
-1.28029E+000, -5.27889E-005
-1.28532E+000, -5.27856E-005
-1.29029E+000, -5.26257E-005
-1.29531E+000, -5.22052E-005
-1.30029E+000, -5.20320E-005
-1.30527E+000, -5.23980E-005
-1.31029E+000, -5.24491E-005
-1.31530E+000, -5.22144E-005
-1.32030E+000, -5.25042E-005
-1.32530E+000, -5.28984E-005
-1.33030E+000, -5.24763E-005
-1.33531E+000, -5.26855E-005
-1.34031E+000, -5.27554E-005
-1.34531E+000, -5.29940E-005
-1.35029E+000, -5.34035E-005
-1.35529E+000, -5.35290E-005
-1.36031E+000, -5.34732E-005
-1.36530E+000, -5.40052E-005
-1.37031E+000, -5.43996E-005
-1.37532E+000, -5.46948E-005
-1.38030E+000, -5.51435E-005
-1.38533E+000, -5.57291E-005
-1.39033E+000, -5.61755E-005
-1.39532E+000, -5.68844E-005
-1.40031E+000, -5.73159E-005
-1.40530E+000, -5.82542E-005
-1.41029E+000, -5.89775E-005
-1.41530E+000, -5.99752E-005
-1.42030E+000, -6.09227E-005
-1.42532E+000, -6.17321E-005
-1.43030E+000, -6.29428E-005
-1.43531E+000, -6.41845E-005
-1.44029E+000, -6.53658E-005
-1.44528E+000, -6.65746E-005
-1.45029E+000, -6.80360E-005
-1.45527E+000, -6.96330E-005
-1.46026E+000, -7.09699E-005
-1.46529E+000, -7.27610E-005
-1.47027E+000, -7.40389E-005
-1.47529E+000, -7.56036E-005
-1.48027E+000, -7.73112E-005
-1.48527E+000, -7.93217E-005
-1.49029E+000, -8.14872E-005
-1.49528E+000, -8.31903E-005
-1.50035E+000, -8.49081E-005
-1.50536E+000, -8.66918E-005
-1.51034E+000, -8.88534E-005
-1.51537E+000, -9.10624E-005
-1.52034E+000, -9.31718E-005
-1.52537E+000, -9.51981E-005
-1.53035E+000, -9.73716E-005
-1.53535E+000, -9.95062E-005
-1.54035E+000, -1.01672E-004
-1.54536E+000, -1.04428E-004
-1.55038E+000, -1.07281E-004
-1.55536E+000, -1.09734E-004
-1.56035E+000, -1.11974E-004
-1.56537E+000, -1.14273E-004
-1.57035E+000, -1.17083E-004
-1.57535E+000, -1.19814E-004
-1.58037E+000, -1.22178E-004
-1.58535E+000, -1.25099E-004
-1.59039E+000, -1.27604E-004
-1.59539E+000, -1.30723E-004
-1.60036E+000, -1.33450E-004
-1.60537E+000, -1.36442E-004
-1.61035E+000, -1.40043E-004
-1.61536E+000, -1.42606E-004
-1.62036E+000, -1.45013E-004
-1.62537E+000, -1.48215E-004
-1.63038E+000, -1.51357E-004
-1.63536E+000, -1.54355E-004
-1.64036E+000, -1.57594E-004
-1.64532E+000, -1.61548E-004
-1.65032E+000, -1.64935E-004
-1.65535E+000, -1.68305E-004
-1.66032E+000, -1.71949E-004
-1.66533E+000, -1.75318E-004
-1.67033E+000, -1.79168E-004
-1.67532E+000, -1.82447E-004
-1.68032E+000, -1.85448E-004
-1.68533E+000, -1.89396E-004
-1.69031E+000, -1.93436E-004
-1.69535E+000, -1.96716E-004
-1.70034E+000, -2.00230E-004
-1.70534E+000, -2.04251E-004
-1.71035E+000, -2.08478E-004
-1.71532E+000, -2.12170E-004
-1.72033E+000, -2.16371E-004
-1.72534E+000, -2.20334E-004
-1.73035E+000, -2.23780E-004
-1.73532E+000, -2.27290E-004
-1.74033E+000, -2.31656E-004
-1.74535E+000, -2.35028E-004
-1.75036E+000, -2.38751E-004
-1.75535E+000, -2.42333E-004
-1.76033E+000, -2.46261E-004
-1.76533E+000, -2.50628E-004
-1.77035E+000, -2.55110E-004
-1.77533E+000, -2.58824E-004
-1.78034E+000, -2.62722E-004
-1.78535E+000, -2.66906E-004
-1.79034E+000, -2.69314E-004
-1.79538E+000, -2.73381E-004
-1.80036E+000, -2.76580E-004
-1.80534E+000, -2.80477E-004
-1.81034E+000, -2.83708E-004
-1.81533E+000, -2.87106E-004
-1.82035E+000, -2.90316E-004
-1.82536E+000, -2.93656E-004
-1.83034E+000, -2.97340E-004
-1.83534E+000, -3.01778E-004
-1.84033E+000, -3.05800E-004
-1.84534E+000, -3.09361E-004
-1.85032E+000, -3.12969E-004
-1.85532E+000, -3.16595E-004
-1.86038E+000, -3.20005E-004
-1.86535E+000, -3.22421E-004
-1.87037E+000, -3.25246E-004
-1.87537E+000, -3.28577E-004
-1.88036E+000, -3.32070E-004
-1.88539E+000, -3.35549E-004
-1.89037E+000, -3.39097E-004
-1.89536E+000, -3.40909E-004
-1.90039E+000, -3.43991E-004
-1.90538E+000, -3.48012E-004
-1.91039E+000, -3.51948E-004
-1.91538E+000, -3.55689E-004
-1.92037E+000, -3.59178E-004
-1.92537E+000, -3.62042E-004
-1.93038E+000, -3.65393E-004
-1.93540E+000, -3.67377E-004
-1.94038E+000, -3.71588E-004
-1.94536E+000, -3.75070E-004
-1.95040E+000, -3.78440E-004
-1.95538E+000, -3.80692E-004
-1.96040E+000, -3.83020E-004
-1.96540E+000, -3.85779E-004
-1.97038E+000, -3.88599E-004
-1.97541E+000, -3.92153E-004
-1.98040E+000, -3.94964E-004
-1.98541E+000, -3.97853E-004
-1.99040E+000, -4.01484E-004
-1.99540E+000, -4.04853E-004
-2.00040E+000, -4.08087E-004
-1.99546E+000, -3.92983E-004
-1.99046E+000, -3.80402E-004
-1.98546E+000, -3.69045E-004
-1.98047E+000, -3.58365E-004
-1.97547E+000, -3.49690E-004
-1.97045E+000, -3.41225E-004
-1.96545E+000, -3.32503E-004
-1.96046E+000, -3.25898E-004
-1.95544E+000, -3.19496E-004
-1.95044E+000, -3.12573E-004
-1.94541E+000, -3.05992E-004
-1.94043E+000, -2.99284E-004
-1.93544E+000, -2.93256E-004
-1.93043E+000, -2.87256E-004
-1.92543E+000, -2.81420E-004
-1.92041E+000, -2.75426E-004
-1.91543E+000, -2.69572E-004
-1.91046E+000, -2.63874E-004
-1.90542E+000, -2.58860E-004
-1.90045E+000, -2.53372E-004
-1.89541E+000, -2.48200E-004
-1.89040E+000, -2.42781E-004
-1.88540E+000, -2.37015E-004
-1.88042E+000, -2.31530E-004
-1.87540E+000, -2.26107E-004
-1.87042E+000, -2.20985E-004
-1.86540E+000, -2.16036E-004
-1.86042E+000, -2.11394E-004
-1.85535E+000, -2.05587E-004
-1.85037E+000, -2.00438E-004
-1.84538E+000, -1.95472E-004
-1.84037E+000, -1.90320E-004
-1.83538E+000, -1.85891E-004
-1.83038E+000, -1.81333E-004
-1.82538E+000, -1.76179E-004
-1.82039E+000, -1.71545E-004
-1.81538E+000, -1.67116E-004
-1.81039E+000, -1.62602E-004
-1.80540E+000, -1.58236E-004
-1.80042E+000, -1.54175E-004
-1.79541E+000, -1.49653E-004
-1.79040E+000, -1.45028E-004
-1.78540E+000, -1.40590E-004
-1.78038E+000, -1.36125E-004
-1.77539E+000, -1.31439E-004
-1.77041E+000, -1.27456E-004
-1.76538E+000, -1.23803E-004
-1.76040E+000, -1.20119E-004
-1.75542E+000, -1.16231E-004
-1.75040E+000, -1.12318E-004
-1.74540E+000, -1.08970E-004
-1.74038E+000, -1.05870E-004
-1.73538E+000, -1.02656E-004
-1.73039E+000, -9.93994E-005
-1.72538E+000, -9.60363E-005
-1.72040E+000, -9.32936E-005
-1.71537E+000, -9.03693E-005
-1.71041E+000, -8.71649E-005
-1.70539E+000, -8.43824E-005
-1.70040E+000, -8.14537E-005
-1.69540E+000, -7.87253E-005
-1.69036E+000, -7.64178E-005
-1.68536E+000, -7.42145E-005
-1.68037E+000, -7.19385E-005
-1.67536E+000, -7.00077E-005
-1.67037E+000, -6.78947E-005
-1.66537E+000, -6.59462E-005
-1.66038E+000, -6.44468E-005
-1.65539E+000, -6.30161E-005
-1.65039E+000, -6.12672E-005
-1.64539E+000, -5.97916E-005
-1.64041E+000, -5.82110E-005
-1.63540E+000, -5.68740E-005
-1.63040E+000, -5.54368E-005
-1.62539E+000, -5.41778E-005
-1.62041E+000, -5.29730E-005
-1.61541E+000, -5.18322E-005
-1.61038E+000, -5.10382E-005
-1.60542E+000, -4.99685E-005
-1.60041E+000, -4.90870E-005
-1.59542E+000, -4.79899E-005
-1.59042E+000, -4.71358E-005
-1.58540E+000, -4.64431E-005
-1.58041E+000, -4.56266E-005
-1.57540E+000, -4.49614E-005
-1.57040E+000, -4.42972E-005
-1.56541E+000, -4.38033E-005
-1.56039E+000, -4.33237E-005
-1.55540E+000, -4.28684E-005
-1.55042E+000, -4.25246E-005
-1.54543E+000, -4.22500E-005
-1.54043E+000, -4.16915E-005
-1.53540E+000, -4.13577E-005
-1.53040E+000, -4.10552E-005
-1.52542E+000, -4.06472E-005
-1.52039E+000, -4.04809E-005
-1.51540E+000, -4.01802E-005
-1.51037E+000, -4.00378E-005
-1.50539E+000, -3.97516E-005
-1.50040E+000, -3.94921E-005
-1.49533E+000, -3.93706E-005
-1.49035E+000, -3.93259E-005
-1.48532E+000, -3.92129E-005
-1.48032E+000, -3.92170E-005
-1.47534E+000, -3.93886E-005
-1.47034E+000, -3.92679E-005
-1.46535E+000, -3.93982E-005
-1.46033E+000, -3.94720E-005
-1.45533E+000, -3.94407E-005
-1.45035E+000, -3.98354E-005
-1.44534E+000, -4.02136E-005
-1.44033E+000, -4.03259E-005
-1.43535E+000, -4.02832E-005
-1.43035E+000, -4.05938E-005
-1.42536E+000, -4.10360E-005
-1.42035E+000, -4.11543E-005
-1.41536E+000, -4.13162E-005
-1.41034E+000, -4.18018E-005
-1.40533E+000, -4.22506E-005
-1.40035E+000, -4.20640E-005
-1.39534E+000, -4.24643E-005
-1.39035E+000, -4.25747E-005
-1.38537E+000, -4.28956E-005
-1.38034E+000, -4.31064E-005
-1.37535E+000, -4.31063E-005
-1.37034E+000, -4.34446E-005
-1.36536E+000, -4.32277E-005
-1.36036E+000, -4.34781E-005
-1.35534E+000, -4.34829E-005
-1.35033E+000, -4.31504E-005
-1.34535E+000, -4.35269E-005
-1.34034E+000, -4.32572E-005
-1.33534E+000, -4.33025E-005
-1.33033E+000, -4.35757E-005
-1.32534E+000, -4.32826E-005
-1.32035E+000, -4.28310E-005
-1.31533E+000, -4.31880E-005
-1.31036E+000, -4.29181E-005
-1.30533E+000, -4.29747E-005
-1.30034E+000, -4.30010E-005
-1.29535E+000, -4.28341E-005
-1.29035E+000, -4.28871E-005
-1.28536E+000, -4.29816E-005
-1.28032E+000, -4.26849E-005
-1.27532E+000, -4.21066E-005
-1.27033E+000, -4.24035E-005
-1.26533E+000, -4.22086E-005
-1.26034E+000, -4.19633E-005
-1.25530E+000, -4.18899E-005
-1.25032E+000, -4.17170E-005
-1.24534E+000, -4.13701E-005
-1.24032E+000, -4.17772E-005
-1.23531E+000, -4.10920E-005
-1.23033E+000, -4.12212E-005
-1.22532E+000, -4.07927E-005
-1.22034E+000, -4.08635E-005
-1.21534E+000, -4.07806E-005
-1.21034E+000, -4.02616E-005
-1.20534E+000, -4.04329E-005
-1.20033E+000, -3.99263E-005
-1.19535E+000, -4.00120E-005
-1.19034E+000, -3.96481E-005
-1.18534E+000, -3.93308E-005
-1.18036E+000, -3.88363E-005
-1.17532E+000, -3.88314E-005
-1.17034E+000, -3.88209E-005
-1.16532E+000, -3.81854E-005
-1.16033E+000, -3.85719E-005
-1.15535E+000, -3.81536E-005
-1.15033E+000, -3.78012E-005
-1.14534E+000, -3.75920E-005
-1.14036E+000, -3.78494E-005
-1.13530E+000, -3.78215E-005
-1.13029E+000, -3.77755E-005
-1.12526E+000, -3.76967E-005
-1.12028E+000, -3.71952E-005
-1.11529E+000, -3.68598E-005
-1.11028E+000, -3.72077E-005
-1.10530E+000, -3.72546E-005
-1.10029E+000, -3.71874E-005
-1.09530E+000, -3.61156E-005
-1.09029E+000, -3.64848E-005
-1.08528E+000, -3.66528E-005
-1.08030E+000, -3.63000E-005
-1.07526E+000, -3.66212E-005
-1.07028E+000, -3.63749E-005
-1.06529E+000, -3.66608E-005
-1.06027E+000, -3.64325E-005
-1.05526E+000, -3.64028E-005
-1.05024E+000, -3.61948E-005
-1.04527E+000, -3.58776E-005
-1.04029E+000, -3.63039E-005
-1.03526E+000, -3.58584E-005
-1.03026E+000, -3.54869E-005
-1.02526E+000, -3.56119E-005
-1.02027E+000, -3.50663E-005
-1.01528E+000, -3.48638E-005
-1.01027E+000, -3.48259E-005
-1.00527E+000, -3.39147E-005
-1.00029E+000, -3.45202E-005
-9.95267E-001, -3.44832E-005
-9.90304E-001, -3.46143E-005
-9.85296E-001, -3.39506E-005
-9.80292E-001, -3.36542E-005
-9.75290E-001, -3.35027E-005
-9.70271E-001, -3.29656E-005
-9.65297E-001, -3.29559E-005
-9.60265E-001, -3.29702E-005
-9.55288E-001, -3.22446E-005
-9.50288E-001, -3.20929E-005
-9.45269E-001, -3.23697E-005
-9.40270E-001, -3.22252E-005
-9.35291E-001, -3.21053E-005
-9.30275E-001, -3.17934E-005
-9.25274E-001, -3.18696E-005
-9.20262E-001, -3.12699E-005
-9.15285E-001, -3.17682E-005
-9.10284E-001, -3.17447E-005
-9.05266E-001, -3.12969E-005
-9.00279E-001, -3.09250E-005
-8.95275E-001, -3.09201E-005
-8.90278E-001, -3.06922E-005
-8.85291E-001, -3.14053E-005
-8.80299E-001, -3.09543E-005
-8.75295E-001, -3.13859E-005
-8.70256E-001, -3.15043E-005
-8.65261E-001, -3.14799E-005
-8.60261E-001, -3.15019E-005
-8.55251E-001, -3.10021E-005
-8.50251E-001, -3.12783E-005
-8.45237E-001, -3.10478E-005
-8.40254E-001, -3.07867E-005
-8.35253E-001, -3.09684E-005
-8.30242E-001, -3.09259E-005
-8.25246E-001, -3.11509E-005
-8.20275E-001, -3.10880E-005
-8.15268E-001, -3.04868E-005
-8.10267E-001, -2.99857E-005
-8.05241E-001, -2.98256E-005
-8.00259E-001, -3.01137E-005
##END=$$ End of the data block
