##TITLE=Spectrum
##JCAMP-DX=5.00 $$ chemotion-converter-app (1.6.2)
##DATA TYPE=CYCLIC VOLTAMMETRY
##DATA CLASS=XYPOINTS
##ORIGIN=
##OWNER=
##XUNITS=Voltage in V
##YUNITS=Current in A
##DATE=27.4.2022
##SCAN_RATE=0.0999998
##STEP_SIZE=0.005
##CYCLES=10
##SOFTWARE_VERSION=7.8.6
##SOFTWARE=Framework
##VOLTAGE_LIMIT_END=-8.00000E-001
##SERIAL=IFC1010-28176
##FIRSTX=-8.05219E-001
##LASTX=-8.00258E-001
##MINX=-2.0004
##MAXX=2.2250738585072014e-308
##MINY=-0.000369984
##MAXY=2.2250738585072014e-308
##NPOINTS=480
##FIRSTY=-4.03503E-005
##XUNITS=Voltage in V
##YUNITS=Current in A
##XYPOINTS=(XY..XY)
-8.05219E-001, -4.03503E-005
-8.10235E-001, -4.24965E-005
-8.15221E-001, -4.41473E-005
-8.20221E-001, -4.46953E-005
-8.25210E-001, -4.58675E-005
-8.30204E-001, -4.63287E-005
-8.35227E-001, -4.71486E-005
-8.40207E-001, -4.80589E-005
-8.45189E-001, -4.92248E-005
-8.50205E-001, -4.94488E-005
-8.55190E-001, -4.98612E-005
-8.60207E-001, -5.02346E-005
-8.65213E-001, -5.11156E-005
-8.70208E-001, -5.15315E-005
-8.75242E-001, -5.18516E-005
-8.80234E-001, -5.20539E-005
-8.85231E-001, -5.25500E-005
-8.90218E-001, -5.27859E-005
-8.95212E-001, -5.27470E-005
-9.00223E-001, -5.28954E-005
-9.05214E-001, -5.31290E-005
-9.10220E-001, -5.34061E-005
-9.15212E-001, -5.34857E-005
-9.20199E-001, -5.31042E-005
-9.25232E-001, -5.34914E-005
-9.30220E-001, -5.38436E-005
-9.35267E-001, -5.39517E-005
-9.40251E-001, -5.38912E-005
-9.45238E-001, -5.39155E-005
-9.50261E-001, -5.39442E-005
-9.55249E-001, -5.38665E-005
-9.60232E-001, -5.38785E-005
-9.65241E-001, -5.37602E-005
-9.70213E-001, -5.38619E-005
-9.75252E-001, -5.36342E-005
-9.80252E-001, -5.34805E-005
-9.85240E-001, -5.33061E-005
-9.90246E-001, -5.32634E-005
-9.95206E-001, -5.32351E-005
-1.00023E+000, -5.29622E-005
-1.00523E+000, -5.31119E-005
-1.01022E+000, -5.31127E-005
-1.01525E+000, -5.29127E-005
-1.02022E+000, -5.25361E-005
-1.02522E+000, -5.25474E-005
-1.03022E+000, -5.22949E-005
-1.03522E+000, -5.18399E-005
-1.04022E+000, -5.19143E-005
-1.04522E+000, -5.16675E-005
-1.05021E+000, -5.19850E-005
-1.05522E+000, -5.15415E-005
-1.06022E+000, -5.13383E-005
-1.06523E+000, -5.11373E-005
-1.07022E+000, -5.08108E-005
-1.07520E+000, -5.08838E-005
-1.08025E+000, -5.10963E-005
-1.08524E+000, -5.11424E-005
-1.09023E+000, -5.10145E-005
-1.09523E+000, -5.05116E-005
-1.10021E+000, -5.00115E-005
-1.10524E+000, -4.98453E-005
-1.11023E+000, -4.96721E-005
-1.11524E+000, -4.97588E-005
-1.12024E+000, -4.98043E-005
-1.12523E+000, -4.95742E-005
-1.13024E+000, -4.93304E-005
-1.13523E+000, -4.95757E-005
-1.14030E+000, -4.93613E-005
-1.14529E+000, -4.87840E-005
-1.15027E+000, -4.87082E-005
-1.15529E+000, -4.87658E-005
-1.16030E+000, -4.81611E-005
-1.16527E+000, -4.84474E-005
-1.17029E+000, -4.84721E-005
-1.17528E+000, -4.80326E-005
-1.18031E+000, -4.76266E-005
-1.18530E+000, -4.77324E-005
-1.19029E+000, -4.77234E-005
-1.19530E+000, -4.69694E-005
-1.20027E+000, -4.71262E-005
-1.20530E+000, -4.70839E-005
-1.21029E+000, -4.73325E-005
-1.21530E+000, -4.72533E-005
-1.22031E+000, -4.70147E-005
-1.22529E+000, -4.70436E-005
-1.23029E+000, -4.74999E-005
-1.23530E+000, -4.73924E-005
-1.24029E+000, -4.71427E-005
-1.24527E+000, -4.70486E-005
-1.25028E+000, -4.71710E-005
-1.25526E+000, -4.68177E-005
-1.26028E+000, -4.70330E-005
-1.26527E+000, -4.68996E-005
-1.27029E+000, -4.72149E-005
-1.27528E+000, -4.74875E-005
-1.28027E+000, -4.73228E-005
-1.28530E+000, -4.79086E-005
-1.29028E+000, -4.78347E-005
-1.29530E+000, -4.83057E-005
-1.30030E+000, -4.86630E-005
-1.30529E+000, -4.88986E-005
-1.31031E+000, -4.88403E-005
-1.31529E+000, -4.93661E-005
-1.32030E+000, -4.95904E-005
-1.32529E+000, -4.97245E-005
-1.33029E+000, -5.02229E-005
-1.33530E+000, -5.05203E-005
-1.34030E+000, -5.12280E-005
-1.34532E+000, -5.14333E-005
-1.35029E+000, -5.20276E-005
-1.35528E+000, -5.22178E-005
-1.36030E+000, -5.27721E-005
-1.36531E+000, -5.35776E-005
-1.37030E+000, -5.37798E-005
-1.37531E+000, -5.44160E-005
-1.38031E+000, -5.49975E-005
-1.38533E+000, -5.57925E-005
-1.39031E+000, -5.61524E-005
-1.39529E+000, -5.72597E-005
-1.40030E+000, -5.80067E-005
-1.40529E+000, -5.86923E-005
-1.41029E+000, -5.95344E-005
-1.41530E+000, -6.03822E-005
-1.42031E+000, -6.14989E-005
-1.42532E+000, -6.23658E-005
-1.43030E+000, -6.32404E-005
-1.43529E+000, -6.43081E-005
-1.44030E+000, -6.50988E-005
-1.44530E+000, -6.63843E-005
-1.45030E+000, -6.71130E-005
-1.45529E+000, -6.82131E-005
-1.46027E+000, -6.98118E-005
-1.46529E+000, -7.08453E-005
-1.47027E+000, -7.23493E-005
-1.47528E+000, -7.30616E-005
-1.48029E+000, -7.46866E-005
-1.48528E+000, -7.63558E-005
-1.49030E+000, -7.80339E-005
-1.49530E+000, -7.88876E-005
-1.50036E+000, -8.07717E-005
-1.50537E+000, -8.20445E-005
-1.51034E+000, -8.38219E-005
-1.51537E+000, -8.58405E-005
-1.52033E+000, -8.71727E-005
-1.52535E+000, -8.90546E-005
-1.53034E+000, -9.08677E-005
-1.53533E+000, -9.31358E-005
-1.54034E+000, -9.53907E-005
-1.54535E+000, -9.80215E-005
-1.55037E+000, -9.94250E-005
-1.55535E+000, -1.00863E-004
-1.56034E+000, -1.03252E-004
-1.56536E+000, -1.05613E-004
-1.57035E+000, -1.08278E-004
-1.57535E+000, -1.10213E-004
-1.58035E+000, -1.12176E-004
-1.58535E+000, -1.15280E-004
-1.59039E+000, -1.17795E-004
-1.59539E+000, -1.20267E-004
-1.60035E+000, -1.22615E-004
-1.60538E+000, -1.25545E-004
-1.61036E+000, -1.28340E-004
-1.61537E+000, -1.30945E-004
-1.62036E+000, -1.34296E-004
-1.62536E+000, -1.37029E-004
-1.63036E+000, -1.39584E-004
-1.63534E+000, -1.42463E-004
-1.64035E+000, -1.45408E-004
-1.64532E+000, -1.48937E-004
-1.65033E+000, -1.51912E-004
-1.65534E+000, -1.54758E-004
-1.66033E+000, -1.57874E-004
-1.66536E+000, -1.60954E-004
-1.67033E+000, -1.64527E-004
-1.67532E+000, -1.68142E-004
-1.68033E+000, -1.70808E-004
-1.68533E+000, -1.73680E-004
-1.69030E+000, -1.77096E-004
-1.69534E+000, -1.80189E-004
-1.70033E+000, -1.82871E-004
-1.70534E+000, -1.86091E-004
-1.71035E+000, -1.89795E-004
-1.71533E+000, -1.93423E-004
-1.72035E+000, -1.97312E-004
-1.72534E+000, -2.00166E-004
-1.73035E+000, -2.04241E-004
-1.73535E+000, -2.06618E-004
-1.74034E+000, -2.09631E-004
-1.74536E+000, -2.13348E-004
-1.75035E+000, -2.16877E-004
-1.75538E+000, -2.20137E-004
-1.76035E+000, -2.24984E-004
-1.76535E+000, -2.28742E-004
-1.77035E+000, -2.31267E-004
-1.77535E+000, -2.35424E-004
-1.78035E+000, -2.38808E-004
-1.78535E+000, -2.42135E-004
-1.79035E+000, -2.44942E-004
-1.79538E+000, -2.47954E-004
-1.80036E+000, -2.51510E-004
-1.80533E+000, -2.54301E-004
-1.81034E+000, -2.56947E-004
-1.81531E+000, -2.60407E-004
-1.82034E+000, -2.62762E-004
-1.82534E+000, -2.66032E-004
-1.83034E+000, -2.68441E-004
-1.83536E+000, -2.72076E-004
-1.84033E+000, -2.75397E-004
-1.84535E+000, -2.78942E-004
-1.85034E+000, -2.79934E-004
-1.85532E+000, -2.83287E-004
-1.86038E+000, -2.87645E-004
-1.86537E+000, -2.90294E-004
-1.87039E+000, -2.93419E-004
-1.87537E+000, -2.96224E-004
-1.88037E+000, -2.99071E-004
-1.88538E+000, -3.02168E-004
-1.89038E+000, -3.05913E-004
-1.89537E+000, -3.08954E-004
-1.90040E+000, -3.13052E-004
-1.90539E+000, -3.16114E-004
-1.91040E+000, -3.18003E-004
-1.91538E+000, -3.21715E-004
-1.92038E+000, -3.24614E-004
-1.92539E+000, -3.26504E-004
-1.93039E+000, -3.29552E-004
-1.93540E+000, -3.31776E-004
-1.94038E+000, -3.34210E-004
-1.94539E+000, -3.37858E-004
-1.95041E+000, -3.40201E-004
-1.95539E+000, -3.43350E-004
-1.96041E+000, -3.47634E-004
-1.96540E+000, -3.50971E-004
-1.97037E+000, -3.53593E-004
-1.97538E+000, -3.53975E-004
-1.98040E+000, -3.56233E-004
-1.98539E+000, -3.60010E-004
-1.99039E+000, -3.62743E-004
-1.99539E+000, -3.65544E-004
-2.00040E+000, -3.69984E-004
-1.99544E+000, -3.56614E-004
-1.99044E+000, -3.46348E-004
-1.98545E+000, -3.37786E-004
-1.98046E+000, -3.28477E-004
-1.97546E+000, -3.19659E-004
-1.97045E+000, -3.12047E-004
-1.96545E+000, -3.04475E-004
-1.96045E+000, -2.97706E-004
-1.95543E+000, -2.91975E-004
-1.95044E+000, -2.86619E-004
-1.94543E+000, -2.80789E-004
-1.94043E+000, -2.74667E-004
-1.93543E+000, -2.70337E-004
-1.93041E+000, -2.65163E-004
-1.92543E+000, -2.60596E-004
-1.92041E+000, -2.54804E-004
-1.91543E+000, -2.49726E-004
-1.91045E+000, -2.45567E-004
-1.90542E+000, -2.41192E-004
-1.90044E+000, -2.36023E-004
-1.89541E+000, -2.30983E-004
-1.89042E+000, -2.26384E-004
-1.88543E+000, -2.21116E-004
-1.88041E+000, -2.16739E-004
-1.87543E+000, -2.12083E-004
-1.87043E+000, -2.07181E-004
-1.86542E+000, -2.03290E-004
-1.86043E+000, -1.98979E-004
-1.85537E+000, -1.94011E-004
-1.85038E+000, -1.89774E-004
-1.84538E+000, -1.85291E-004
-1.84037E+000, -1.81117E-004
-1.83540E+000, -1.76886E-004
-1.83038E+000, -1.72266E-004
-1.82539E+000, -1.68096E-004
-1.82040E+000, -1.63759E-004
-1.81539E+000, -1.59569E-004
-1.81040E+000, -1.55604E-004
-1.80540E+000, -1.51760E-004
-1.80044E+000, -1.47971E-004
-1.79544E+000, -1.44360E-004
-1.79041E+000, -1.40079E-004
-1.78541E+000, -1.36793E-004
-1.78040E+000, -1.33434E-004
-1.77542E+000, -1.30196E-004
-1.77040E+000, -1.26409E-004
-1.76538E+000, -1.22695E-004
-1.76039E+000, -1.19251E-004
-1.75541E+000, -1.15697E-004
-1.75038E+000, -1.11962E-004
-1.74539E+000, -1.08429E-004
-1.74038E+000, -1.05321E-004
-1.73538E+000, -1.02428E-004
-1.73039E+000, -9.98375E-005
-1.72540E+000, -9.68776E-005
-1.72041E+000, -9.37703E-005
-1.71539E+000, -9.06262E-005
-1.71042E+000, -8.79657E-005
-1.70540E+000, -8.54140E-005
-1.70039E+000, -8.28573E-005
-1.69541E+000, -8.02520E-005
-1.69035E+000, -7.79524E-005
-1.68537E+000, -7.57974E-005
-1.68037E+000, -7.36582E-005
-1.67536E+000, -7.13777E-005
-1.67036E+000, -6.93509E-005
-1.66538E+000, -6.73214E-005
-1.66036E+000, -6.54547E-005
-1.65537E+000, -6.39728E-005
-1.65038E+000, -6.24783E-005
-1.64536E+000, -6.13372E-005
-1.64039E+000, -5.96025E-005
-1.63540E+000, -5.79074E-005
-1.63041E+000, -5.63510E-005
-1.62541E+000, -5.54038E-005
-1.62042E+000, -5.38279E-005
-1.61542E+000, -5.28748E-005
-1.61040E+000, -5.17386E-005
-1.60543E+000, -5.07277E-005
-1.60041E+000, -4.94528E-005
-1.59543E+000, -4.83911E-005
-1.59044E+000, -4.74318E-005
-1.58540E+000, -4.68433E-005
-1.58041E+000, -4.60694E-005
-1.57540E+000, -4.50431E-005
-1.57041E+000, -4.45626E-005
-1.56541E+000, -4.34974E-005
-1.56039E+000, -4.27782E-005
-1.55542E+000, -4.26264E-005
-1.55043E+000, -4.18688E-005
-1.54541E+000, -4.15468E-005
-1.54042E+000, -4.12530E-005
-1.53539E+000, -4.11186E-005
-1.53039E+000, -4.08436E-005
-1.52541E+000, -4.04495E-005
-1.52038E+000, -4.03325E-005
-1.51541E+000, -4.02490E-005
-1.51038E+000, -4.01947E-005
-1.50541E+000, -4.01620E-005
-1.50041E+000, -4.01483E-005
-1.49535E+000, -4.00523E-005
-1.49036E+000, -4.02702E-005
-1.48533E+000, -4.02833E-005
-1.48034E+000, -4.03161E-005
-1.47535E+000, -4.06116E-005
-1.47033E+000, -4.05874E-005
-1.46535E+000, -4.08679E-005
-1.46033E+000, -4.10715E-005
-1.45533E+000, -4.12230E-005
-1.45034E+000, -4.13131E-005
-1.44535E+000, -4.19499E-005
-1.44034E+000, -4.21275E-005
-1.43535E+000, -4.24521E-005
-1.43035E+000, -4.28387E-005
-1.42537E+000, -4.27608E-005
-1.42036E+000, -4.27872E-005
-1.41536E+000, -4.34815E-005
-1.41036E+000, -4.38667E-005
-1.40535E+000, -4.41715E-005
-1.40039E+000, -4.38921E-005
-1.39536E+000, -4.42289E-005
-1.39037E+000, -4.43191E-005
-1.38539E+000, -4.44924E-005
-1.38037E+000, -4.44147E-005
-1.37537E+000, -4.48766E-005
-1.37036E+000, -4.43622E-005
-1.36537E+000, -4.44379E-005
-1.36036E+000, -4.44945E-005
-1.35535E+000, -4.46402E-005
-1.35034E+000, -4.45892E-005
-1.34535E+000, -4.39695E-005
-1.34034E+000, -4.38422E-005
-1.33534E+000, -4.35290E-005
-1.33033E+000, -4.33815E-005
-1.32534E+000, -4.30232E-005
-1.32035E+000, -4.27647E-005
-1.31534E+000, -4.26541E-005
-1.31035E+000, -4.18979E-005
-1.30534E+000, -4.20959E-005
-1.30034E+000, -4.15809E-005
-1.29536E+000, -4.13707E-005
-1.29035E+000, -4.06848E-005
-1.28535E+000, -4.05867E-005
-1.28032E+000, -4.03736E-005
-1.27534E+000, -3.99429E-005
-1.27034E+000, -3.95819E-005
-1.26534E+000, -3.91129E-005
-1.26035E+000, -3.88583E-005
-1.25532E+000, -3.90512E-005
-1.25033E+000, -3.83318E-005
-1.24534E+000, -3.76591E-005
-1.24034E+000, -3.76296E-005
-1.23533E+000, -3.73879E-005
-1.23034E+000, -3.69499E-005
-1.22533E+000, -3.69802E-005
-1.22034E+000, -3.63658E-005
-1.21534E+000, -3.55012E-005
-1.21034E+000, -3.56297E-005
-1.20534E+000, -3.55207E-005
-1.20033E+000, -3.53440E-005
-1.19535E+000, -3.49471E-005
-1.19034E+000, -3.43141E-005
-1.18535E+000, -3.45743E-005
-1.18035E+000, -3.39974E-005
-1.17533E+000, -3.39057E-005
-1.17034E+000, -3.40094E-005
-1.16532E+000, -3.42989E-005
-1.16035E+000, -3.43303E-005
-1.15536E+000, -3.36826E-005
-1.15034E+000, -3.28724E-005
-1.14534E+000, -3.29334E-005
-1.14035E+000, -3.31538E-005
-1.13528E+000, -3.34901E-005
-1.13027E+000, -3.27353E-005
-1.12525E+000, -3.25339E-005
-1.12027E+000, -3.24672E-005
-1.11527E+000, -3.24328E-005
-1.11027E+000, -3.24626E-005
-1.10529E+000, -3.21688E-005
-1.10026E+000, -3.24036E-005
-1.09528E+000, -3.27378E-005
-1.09028E+000, -3.29456E-005
-1.08527E+000, -3.31060E-005
-1.08029E+000, -3.31781E-005
-1.07525E+000, -3.32211E-005
-1.07026E+000, -3.32882E-005
-1.06526E+000, -3.38275E-005
-1.06025E+000, -3.44652E-005
-1.05525E+000, -3.48382E-005
-1.05024E+000, -3.52922E-005
-1.04527E+000, -3.52612E-005
-1.04027E+000, -3.55042E-005
-1.03526E+000, -3.60182E-005
-1.03027E+000, -3.63760E-005
-1.02528E+000, -3.67622E-005
-1.02027E+000, -3.70376E-005
-1.01529E+000, -3.77289E-005
-1.01028E+000, -3.79426E-005
-1.00528E+000, -3.80934E-005
-1.00028E+000, -3.86520E-005
-9.95263E-001, -3.94321E-005
-9.90307E-001, -3.98791E-005
-9.85296E-001, -4.01700E-005
-9.80307E-001, -4.04920E-005
-9.75307E-001, -4.10472E-005
-9.70264E-001, -4.14963E-005
-9.65284E-001, -4.18072E-005
-9.60266E-001, -4.15653E-005
-9.55283E-001, -4.14079E-005
-9.50292E-001, -4.14365E-005
-9.45272E-001, -4.18944E-005
-9.40276E-001, -4.22083E-005
-9.35299E-001, -4.29463E-005
-9.30277E-001, -4.25915E-005
-9.25279E-001, -4.26973E-005
-9.20253E-001, -4.26496E-005
-9.15270E-001, -4.27838E-005
-9.10277E-001, -4.25229E-005
-9.05268E-001, -4.23834E-005
-9.00269E-001, -4.19340E-005
-8.95251E-001, -4.20209E-005
-8.90252E-001, -4.19937E-005
-8.85260E-001, -4.18654E-005
-8.80271E-001, -4.18541E-005
-8.75288E-001, -4.14798E-005
-8.70242E-001, -4.10501E-005
-8.65267E-001, -4.10247E-005
-8.60271E-001, -4.06630E-005
-8.55255E-001, -4.04086E-005
-8.50259E-001, -4.01384E-005
-8.45243E-001, -3.96668E-005
-8.40261E-001, -3.89148E-005
-8.35263E-001, -3.88243E-005
-8.30262E-001, -3.85198E-005
-8.25261E-001, -3.82081E-005
-8.20259E-001, -3.75801E-005
-8.15253E-001, -3.71320E-005
-8.10254E-001, -3.64960E-005
-8.05248E-001, -3.61881E-005
-8.00258E-001, -3.59124E-005
##END=$$ End of the data block
