##TITLE=Spectrum
##JCAMP-DX=5.00 $$ chemotion-converter-app (1.6.2)
##DATA TYPE=CYCLIC VOLTAMMETRY
##DATA CLASS=XYPOINTS
##ORIGIN=
##OWNER=
##XUNITS=Voltage in V
##YUNITS=Current in A
##DATE=27.4.2022
##SCAN_RATE=0.0999998
##STEP_SIZE=0.005
##CYCLES=10
##SOFTWARE_VERSION=7.8.6
##SOFTWARE=Framework
##VOLTAGE_LIMIT_END=-8.00000E-001
##SERIAL=IFC1010-28176
##FIRSTX=-8.05208E-001
##LASTX=-8.00280E-001
##MINX=-2.00039
##MAXX=2.2250738585072014e-308
##MINY=-0.000278967
##MAXY=2.2250738585072014e-308
##NPOINTS=480
##FIRSTY=-3.19983E-005
##XUNITS=Voltage in V
##YUNITS=Current in A
##XYPOINTS=(XY..XY)
-8.05208E-001, -3.19983E-005
-8.10234E-001, -3.34866E-005
-8.15215E-001, -3.50963E-005
-8.20214E-001, -3.51035E-005
-8.25192E-001, -3.58378E-005
-8.30203E-001, -3.61987E-005
-8.35217E-001, -3.68663E-005
-8.40208E-001, -3.74097E-005
-8.45199E-001, -3.78955E-005
-8.50221E-001, -3.79558E-005
-8.55199E-001, -3.79747E-005
-8.60209E-001, -3.86892E-005
-8.65209E-001, -3.86333E-005
-8.70205E-001, -3.89412E-005
-8.75234E-001, -3.91273E-005
-8.80225E-001, -3.88498E-005
-8.85217E-001, -3.90659E-005
-8.90225E-001, -3.93086E-005
-8.95217E-001, -3.93698E-005
-9.00233E-001, -3.96535E-005
-9.05233E-001, -3.96416E-005
-9.10241E-001, -3.95279E-005
-9.15218E-001, -3.95593E-005
-9.20238E-001, -4.02390E-005
-9.25252E-001, -4.04682E-005
-9.30243E-001, -4.02225E-005
-9.35256E-001, -4.08289E-005
-9.40244E-001, -4.09423E-005
-9.45231E-001, -4.06324E-005
-9.50243E-001, -4.09877E-005
-9.55248E-001, -4.09938E-005
-9.60224E-001, -4.15094E-005
-9.65245E-001, -4.09296E-005
-9.70221E-001, -4.12770E-005
-9.75264E-001, -4.21537E-005
-9.80253E-001, -4.23562E-005
-9.85251E-001, -4.28102E-005
-9.90252E-001, -4.32777E-005
-9.95217E-001, -4.30905E-005
-1.00023E+000, -4.34910E-005
-1.00523E+000, -4.36329E-005
-1.01022E+000, -4.41072E-005
-1.01524E+000, -4.43433E-005
-1.02023E+000, -4.52206E-005
-1.02523E+000, -4.50108E-005
-1.03022E+000, -4.54525E-005
-1.03523E+000, -4.57477E-005
-1.04023E+000, -4.65645E-005
-1.04521E+000, -4.65040E-005
-1.05020E+000, -4.71739E-005
-1.05522E+000, -4.77710E-005
-1.06022E+000, -4.79926E-005
-1.06522E+000, -4.87962E-005
-1.07022E+000, -4.85858E-005
-1.07521E+000, -4.84647E-005
-1.08025E+000, -4.96258E-005
-1.08523E+000, -4.96026E-005
-1.09024E+000, -5.01030E-005
-1.09524E+000, -5.03905E-005
-1.10021E+000, -5.07555E-005
-1.10524E+000, -5.14942E-005
-1.11024E+000, -5.04766E-005
-1.11524E+000, -5.12002E-005
-1.12023E+000, -5.20826E-005
-1.12522E+000, -5.22335E-005
-1.13024E+000, -5.19494E-005
-1.13524E+000, -5.16919E-005
-1.14032E+000, -5.27528E-005
-1.14530E+000, -5.29661E-005
-1.15029E+000, -5.34618E-005
-1.15530E+000, -5.27558E-005
-1.16030E+000, -5.30931E-005
-1.16528E+000, -5.32993E-005
-1.17031E+000, -5.28109E-005
-1.17529E+000, -5.35002E-005
-1.18031E+000, -5.41085E-005
-1.18532E+000, -5.34911E-005
-1.19030E+000, -5.33962E-005
-1.19530E+000, -5.34639E-005
-1.20028E+000, -5.33044E-005
-1.20530E+000, -5.28692E-005
-1.21029E+000, -5.28741E-005
-1.21529E+000, -5.31282E-005
-1.22030E+000, -5.31606E-005
-1.22528E+000, -5.28647E-005
-1.23028E+000, -5.30353E-005
-1.23529E+000, -5.24485E-005
-1.24029E+000, -5.26206E-005
-1.24528E+000, -5.25908E-005
-1.25028E+000, -5.27026E-005
-1.25528E+000, -5.26085E-005
-1.26030E+000, -5.27489E-005
-1.26528E+000, -5.22441E-005
-1.27029E+000, -5.23071E-005
-1.27528E+000, -5.24134E-005
-1.28027E+000, -5.25493E-005
-1.28530E+000, -5.23717E-005
-1.29028E+000, -5.24556E-005
-1.29530E+000, -5.25133E-005
-1.30030E+000, -5.29661E-005
-1.30527E+000, -5.24947E-005
-1.31030E+000, -5.25589E-005
-1.31529E+000, -5.31275E-005
-1.32029E+000, -5.30835E-005
-1.32528E+000, -5.29979E-005
-1.33028E+000, -5.30281E-005
-1.33529E+000, -5.32802E-005
-1.34029E+000, -5.30616E-005
-1.34531E+000, -5.34379E-005
-1.35030E+000, -5.35797E-005
-1.35530E+000, -5.33120E-005
-1.36031E+000, -5.39869E-005
-1.36530E+000, -5.41100E-005
-1.37031E+000, -5.45290E-005
-1.37531E+000, -5.49297E-005
-1.38030E+000, -5.54265E-005
-1.38534E+000, -5.61073E-005
-1.39032E+000, -5.71375E-005
-1.39531E+000, -5.77431E-005
-1.40031E+000, -5.83214E-005
-1.40529E+000, -5.81955E-005
-1.41030E+000, -5.96563E-005
-1.41530E+000, -6.01727E-005
-1.42030E+000, -6.12615E-005
-1.42532E+000, -6.28091E-005
-1.43031E+000, -6.35841E-005
-1.43530E+000, -6.51444E-005
-1.44030E+000, -6.62348E-005
-1.44530E+000, -6.78689E-005
-1.45029E+000, -6.87357E-005
-1.45528E+000, -6.98755E-005
-1.46026E+000, -7.08209E-005
-1.46530E+000, -7.23030E-005
-1.47028E+000, -7.33956E-005
-1.47530E+000, -7.48889E-005
-1.48030E+000, -7.61997E-005
-1.48529E+000, -7.76421E-005
-1.49030E+000, -7.90357E-005
-1.49529E+000, -7.99481E-005
-1.50036E+000, -8.15942E-005
-1.50537E+000, -8.31278E-005
-1.51033E+000, -8.46147E-005
-1.51536E+000, -8.63506E-005
-1.52034E+000, -8.77633E-005
-1.52536E+000, -8.92719E-005
-1.53035E+000, -9.05151E-005
-1.53535E+000, -9.22194E-005
-1.54037E+000, -9.40212E-005
-1.54538E+000, -9.59894E-005
-1.55038E+000, -9.83949E-005
-1.55536E+000, -9.97763E-005
-1.56035E+000, -1.01238E-004
-1.56536E+000, -1.03174E-004
-1.57035E+000, -1.05171E-004
-1.57537E+000, -1.07179E-004
-1.58037E+000, -1.09546E-004
-1.58536E+000, -1.11426E-004
-1.59039E+000, -1.13470E-004
-1.59539E+000, -1.15222E-004
-1.60036E+000, -1.16584E-004
-1.60537E+000, -1.18725E-004
-1.61034E+000, -1.21324E-004
-1.61535E+000, -1.23518E-004
-1.62035E+000, -1.25450E-004
-1.62535E+000, -1.27188E-004
-1.63036E+000, -1.29173E-004
-1.63535E+000, -1.31461E-004
-1.64035E+000, -1.34325E-004
-1.64532E+000, -1.36517E-004
-1.65033E+000, -1.38315E-004
-1.65534E+000, -1.40306E-004
-1.66031E+000, -1.42422E-004
-1.66534E+000, -1.44679E-004
-1.67033E+000, -1.46332E-004
-1.67531E+000, -1.48003E-004
-1.68031E+000, -1.49943E-004
-1.68533E+000, -1.52773E-004
-1.69032E+000, -1.54921E-004
-1.69535E+000, -1.56964E-004
-1.70034E+000, -1.58883E-004
-1.70535E+000, -1.61500E-004
-1.71036E+000, -1.62638E-004
-1.71533E+000, -1.64454E-004
-1.72036E+000, -1.66634E-004
-1.72534E+000, -1.68621E-004
-1.73035E+000, -1.70452E-004
-1.73533E+000, -1.72887E-004
-1.74032E+000, -1.75268E-004
-1.74535E+000, -1.77287E-004
-1.75035E+000, -1.79368E-004
-1.75537E+000, -1.81457E-004
-1.76034E+000, -1.82783E-004
-1.76533E+000, -1.84162E-004
-1.77034E+000, -1.85892E-004
-1.77535E+000, -1.87991E-004
-1.78034E+000, -1.89950E-004
-1.78535E+000, -1.91342E-004
-1.79035E+000, -1.94155E-004
-1.79538E+000, -1.95327E-004
-1.80037E+000, -1.96607E-004
-1.80535E+000, -1.99015E-004
-1.81035E+000, -2.00312E-004
-1.81534E+000, -2.01983E-004
-1.82036E+000, -2.04054E-004
-1.82535E+000, -2.06150E-004
-1.83034E+000, -2.07442E-004
-1.83536E+000, -2.08734E-004
-1.84034E+000, -2.10978E-004
-1.84534E+000, -2.12389E-004
-1.85034E+000, -2.14271E-004
-1.85532E+000, -2.16378E-004
-1.86038E+000, -2.17349E-004
-1.86536E+000, -2.19253E-004
-1.87038E+000, -2.20912E-004
-1.87538E+000, -2.22578E-004
-1.88037E+000, -2.24336E-004
-1.88538E+000, -2.25947E-004
-1.89038E+000, -2.28136E-004
-1.89537E+000, -2.29920E-004
-1.90040E+000, -2.32107E-004
-1.90538E+000, -2.34222E-004
-1.91041E+000, -2.36514E-004
-1.91540E+000, -2.38531E-004
-1.92039E+000, -2.40177E-004
-1.92539E+000, -2.42644E-004
-1.93039E+000, -2.45057E-004
-1.93539E+000, -2.46954E-004
-1.94036E+000, -2.48905E-004
-1.94537E+000, -2.51176E-004
-1.95039E+000, -2.54549E-004
-1.95537E+000, -2.57370E-004
-1.96039E+000, -2.60281E-004
-1.96539E+000, -2.62075E-004
-1.97038E+000, -2.63672E-004
-1.97539E+000, -2.66348E-004
-1.98039E+000, -2.69134E-004
-1.98539E+000, -2.71394E-004
-1.99039E+000, -2.74767E-004
-1.99538E+000, -2.76419E-004
-2.00039E+000, -2.78967E-004
-1.99542E+000, -2.70260E-004
-1.99043E+000, -2.63532E-004
-1.98541E+000, -2.56853E-004
-1.98043E+000, -2.51243E-004
-1.97545E+000, -2.46195E-004
-1.97044E+000, -2.41619E-004
-1.96544E+000, -2.37203E-004
-1.96045E+000, -2.31808E-004
-1.95542E+000, -2.26906E-004
-1.95042E+000, -2.21959E-004
-1.94542E+000, -2.18223E-004
-1.94043E+000, -2.13779E-004
-1.93545E+000, -2.09153E-004
-1.93044E+000, -2.04381E-004
-1.92545E+000, -2.00687E-004
-1.92043E+000, -1.97239E-004
-1.91544E+000, -1.93667E-004
-1.91046E+000, -1.89428E-004
-1.90543E+000, -1.86096E-004
-1.90044E+000, -1.82418E-004
-1.89542E+000, -1.79067E-004
-1.89042E+000, -1.75763E-004
-1.88543E+000, -1.71775E-004
-1.88042E+000, -1.68893E-004
-1.87542E+000, -1.66427E-004
-1.87043E+000, -1.62824E-004
-1.86543E+000, -1.60065E-004
-1.86043E+000, -1.57011E-004
-1.85538E+000, -1.54070E-004
-1.85039E+000, -1.51959E-004
-1.84541E+000, -1.49399E-004
-1.84037E+000, -1.46151E-004
-1.83539E+000, -1.43469E-004
-1.83038E+000, -1.40620E-004
-1.82539E+000, -1.38172E-004
-1.82039E+000, -1.35058E-004
-1.81537E+000, -1.31888E-004
-1.81040E+000, -1.29734E-004
-1.80541E+000, -1.27887E-004
-1.80043E+000, -1.25694E-004
-1.79543E+000, -1.23254E-004
-1.79041E+000, -1.20676E-004
-1.78541E+000, -1.18240E-004
-1.78038E+000, -1.15828E-004
-1.77540E+000, -1.13323E-004
-1.77040E+000, -1.10770E-004
-1.76538E+000, -1.08864E-004
-1.76038E+000, -1.06889E-004
-1.75541E+000, -1.04874E-004
-1.75040E+000, -1.02814E-004
-1.74541E+000, -1.00686E-004
-1.74038E+000, -9.79366E-005
-1.73539E+000, -9.59977E-005
-1.73040E+000, -9.37918E-005
-1.72539E+000, -9.18169E-005
-1.72039E+000, -9.01970E-005
-1.71537E+000, -8.85458E-005
-1.71039E+000, -8.70433E-005
-1.70540E+000, -8.45849E-005
-1.70039E+000, -8.24703E-005
-1.69541E+000, -8.06204E-005
-1.69036E+000, -7.90009E-005
-1.68537E+000, -7.72151E-005
-1.68038E+000, -7.50210E-005
-1.67537E+000, -7.34730E-005
-1.67037E+000, -7.17650E-005
-1.66539E+000, -7.03076E-005
-1.66037E+000, -6.90443E-005
-1.65538E+000, -6.77471E-005
-1.65038E+000, -6.59259E-005
-1.64536E+000, -6.47955E-005
-1.64040E+000, -6.34764E-005
-1.63540E+000, -6.21863E-005
-1.63040E+000, -6.09030E-005
-1.62542E+000, -5.97013E-005
-1.62042E+000, -5.85230E-005
-1.61542E+000, -5.74595E-005
-1.61041E+000, -5.58746E-005
-1.60544E+000, -5.49860E-005
-1.60042E+000, -5.40485E-005
-1.59543E+000, -5.33018E-005
-1.59044E+000, -5.21732E-005
-1.58540E+000, -5.14510E-005
-1.58041E+000, -5.04837E-005
-1.57540E+000, -4.96107E-005
-1.57042E+000, -4.92295E-005
-1.56543E+000, -4.81645E-005
-1.56040E+000, -4.76833E-005
-1.55542E+000, -4.70276E-005
-1.55044E+000, -4.63976E-005
-1.54542E+000, -4.58914E-005
-1.54042E+000, -4.53589E-005
-1.53538E+000, -4.54161E-005
-1.53040E+000, -4.46999E-005
-1.52543E+000, -4.45760E-005
-1.52038E+000, -4.42248E-005
-1.51541E+000, -4.38776E-005
-1.51038E+000, -4.37303E-005
-1.50539E+000, -4.38952E-005
-1.50040E+000, -4.34402E-005
-1.49533E+000, -4.34481E-005
-1.49034E+000, -4.30456E-005
-1.48532E+000, -4.34244E-005
-1.48033E+000, -4.32671E-005
-1.47534E+000, -4.32484E-005
-1.47033E+000, -4.32380E-005
-1.46535E+000, -4.34106E-005
-1.46032E+000, -4.32923E-005
-1.45533E+000, -4.36425E-005
-1.45035E+000, -4.36553E-005
-1.44534E+000, -4.38359E-005
-1.44034E+000, -4.40598E-005
-1.43535E+000, -4.44483E-005
-1.43034E+000, -4.43997E-005
-1.42535E+000, -4.47956E-005
-1.42035E+000, -4.44055E-005
-1.41536E+000, -4.52365E-005
-1.41035E+000, -4.43212E-005
-1.40535E+000, -4.40707E-005
-1.40037E+000, -4.43022E-005
-1.39535E+000, -4.39635E-005
-1.39035E+000, -4.41375E-005
-1.38538E+000, -4.37829E-005
-1.38034E+000, -4.34194E-005
-1.37536E+000, -4.32816E-005
-1.37035E+000, -4.28166E-005
-1.36535E+000, -4.27432E-005
-1.36036E+000, -4.24764E-005
-1.35534E+000, -4.20104E-005
-1.35034E+000, -4.10754E-005
-1.34536E+000, -4.11498E-005
-1.34035E+000, -4.06639E-005
-1.33535E+000, -4.02030E-005
-1.33033E+000, -3.99393E-005
-1.32535E+000, -3.98520E-005
-1.32037E+000, -3.95124E-005
-1.31534E+000, -3.94099E-005
-1.31034E+000, -3.92644E-005
-1.30534E+000, -3.91952E-005
-1.30034E+000, -3.86523E-005
-1.29535E+000, -3.88883E-005
-1.29034E+000, -3.84910E-005
-1.28536E+000, -3.84764E-005
-1.28032E+000, -3.80579E-005
-1.27533E+000, -3.76181E-005
-1.27034E+000, -3.76625E-005
-1.26532E+000, -3.79248E-005
-1.26034E+000, -3.74545E-005
-1.25530E+000, -3.76284E-005
-1.25032E+000, -3.69776E-005
-1.24533E+000, -3.69958E-005
-1.24033E+000, -3.69666E-005
-1.23534E+000, -3.73548E-005
-1.23033E+000, -3.66133E-005
-1.22532E+000, -3.69244E-005
-1.22033E+000, -3.61563E-005
-1.21533E+000, -3.65596E-005
-1.21033E+000, -3.66811E-005
-1.20533E+000, -3.64007E-005
-1.20032E+000, -3.55676E-005
-1.19536E+000, -3.60101E-005
-1.19035E+000, -3.49321E-005
-1.18536E+000, -3.50317E-005
-1.18037E+000, -3.53135E-005
-1.17532E+000, -3.52993E-005
-1.17033E+000, -3.37213E-005
-1.16531E+000, -3.46445E-005
-1.16033E+000, -3.42025E-005
-1.15534E+000, -3.52596E-005
-1.15033E+000, -3.40078E-005
-1.14535E+000, -3.44048E-005
-1.14037E+000, -3.36285E-005
-1.13530E+000, -3.36106E-005
-1.13029E+000, -3.30371E-005
-1.12527E+000, -3.33695E-005
-1.12028E+000, -3.26865E-005
-1.11529E+000, -3.33171E-005
-1.11028E+000, -3.24536E-005
-1.10528E+000, -3.21589E-005
-1.10027E+000, -3.30540E-005
-1.09528E+000, -3.28791E-005
-1.09029E+000, -3.27767E-005
-1.08528E+000, -3.28837E-005
-1.08030E+000, -3.25237E-005
-1.07527E+000, -3.23736E-005
-1.07027E+000, -3.31469E-005
-1.06527E+000, -3.27295E-005
-1.06026E+000, -3.16181E-005
-1.05526E+000, -3.31308E-005
-1.05024E+000, -3.27187E-005
-1.04526E+000, -3.22580E-005
-1.04026E+000, -3.28747E-005
-1.03526E+000, -3.23724E-005
-1.03026E+000, -3.23562E-005
-1.02528E+000, -3.29230E-005
-1.02028E+000, -3.18493E-005
-1.01529E+000, -3.29890E-005
-1.01028E+000, -3.32813E-005
-1.00529E+000, -3.35083E-005
-1.00029E+000, -3.31576E-005
-9.95267E-001, -3.35502E-005
-9.90299E-001, -3.34618E-005
-9.85286E-001, -3.33827E-005
-9.80293E-001, -3.40929E-005
-9.75307E-001, -3.42776E-005
-9.70271E-001, -3.42959E-005
-9.65292E-001, -3.44262E-005
-9.60261E-001, -3.39903E-005
-9.55289E-001, -3.47034E-005
-9.50303E-001, -3.48076E-005
-9.45281E-001, -3.45715E-005
-9.40294E-001, -3.49683E-005
-9.35293E-001, -3.56795E-005
-9.30273E-001, -3.59004E-005
-9.25268E-001, -3.58364E-005
-9.20251E-001, -3.56522E-005
-9.15272E-001, -3.64134E-005
-9.10291E-001, -3.63478E-005
-9.05277E-001, -3.66559E-005
-9.00284E-001, -3.66022E-005
-8.95260E-001, -3.68766E-005
-8.90272E-001, -3.72409E-005
-8.85268E-001, -3.69892E-005
-8.80266E-001, -3.68240E-005
-8.75281E-001, -3.74277E-005
-8.70239E-001, -3.76797E-005
-8.65254E-001, -3.78259E-005
-8.60255E-001, -3.73590E-005
-8.55255E-001, -3.72839E-005
-8.50249E-001, -3.74323E-005
-8.45243E-001, -3.69704E-005
-8.40271E-001, -3.69132E-005
-8.35273E-001, -3.70002E-005
-8.30256E-001, -3.69143E-005
-8.25259E-001, -3.67387E-005
-8.20264E-001, -3.66820E-005
-8.15254E-001, -3.59750E-005
-8.10255E-001, -3.57912E-005
-8.05240E-001, -3.57271E-005
-8.00280E-001, -3.51158E-005
##END=$$ End of the data block
