##TITLE=Spectrum
##JCAMP-DX=5.00 $$ chemotion-converter-app (1.7.0)
##DATA TYPE=CYCLIC VOLTAMMETRY
##DATA CLASS=XYPOINTS
##ORIGIN=
##OWNER=
##XUNITS=Voltage in V
##YUNITS=Current in A
##DATE=27.4.2022
##SCAN_RATE=0.0999998
##STEP_SIZE=0.005
##CYCLES=10
##SOFTWARE_VERSION=7.8.6
##SOFTWARE=Framework
##VOLTAGE_LIMIT_END=-8.00000E-001
##SERIAL=IFC1010-28176
##FIRSTX=-8.05205E-001
##LASTX=-8.00258E-001
##MINX=-2.00042
##MAXX=2.2250738585072014e-308
##MINY=-0.000341755
##MAXY=2.2250738585072014e-308
##NPOINTS=480
##FIRSTY=-3.54604E-005
##XUNITS=Voltage in V
##YUNITS=Current in A
##XYPOINTS=(XY..XY)
-8.05205E-001, -3.54604E-005
-8.10217E-001, -3.73211E-005
-8.15215E-001, -3.82290E-005
-8.20217E-001, -3.93489E-005
-8.25210E-001, -3.96650E-005
-8.30210E-001, -3.99577E-005
-8.35225E-001, -4.06556E-005
-8.40208E-001, -4.05924E-005
-8.45192E-001, -4.11723E-005
-8.50210E-001, -4.17729E-005
-8.55203E-001, -4.22287E-005
-8.60202E-001, -4.23907E-005
-8.65207E-001, -4.26486E-005
-8.70199E-001, -4.27561E-005
-8.75250E-001, -4.33419E-005
-8.80232E-001, -4.32511E-005
-8.85227E-001, -4.35267E-005
-8.90228E-001, -4.39925E-005
-8.95214E-001, -4.40168E-005
-9.00225E-001, -4.36561E-005
-9.05224E-001, -4.39618E-005
-9.10230E-001, -4.37489E-005
-9.15221E-001, -4.38389E-005
-9.20203E-001, -4.46311E-005
-9.25233E-001, -4.45742E-005
-9.30231E-001, -4.45240E-005
-9.35257E-001, -4.47286E-005
-9.40259E-001, -4.51203E-005
-9.45256E-001, -4.49636E-005
-9.50267E-001, -4.46809E-005
-9.55262E-001, -4.50980E-005
-9.60233E-001, -4.54248E-005
-9.65247E-001, -4.53415E-005
-9.70224E-001, -4.55420E-005
-9.75251E-001, -4.56041E-005
-9.80241E-001, -4.57720E-005
-9.85257E-001, -4.55744E-005
-9.90248E-001, -4.62899E-005
-9.95212E-001, -4.62334E-005
-1.00024E+000, -4.66114E-005
-1.00523E+000, -4.66916E-005
-1.01022E+000, -4.80739E-005
-1.01523E+000, -4.75533E-005
-1.02022E+000, -4.70085E-005
-1.02522E+000, -4.76432E-005
-1.03022E+000, -4.77884E-005
-1.03523E+000, -4.80679E-005
-1.04024E+000, -4.84574E-005
-1.04523E+000, -4.87425E-005
-1.05021E+000, -4.90163E-005
-1.05523E+000, -4.94700E-005
-1.06023E+000, -5.01402E-005
-1.06523E+000, -5.01871E-005
-1.07021E+000, -5.03345E-005
-1.07521E+000, -5.04251E-005
-1.08024E+000, -5.06981E-005
-1.08522E+000, -5.13071E-005
-1.09022E+000, -5.09411E-005
-1.09524E+000, -5.13273E-005
-1.10023E+000, -5.12420E-005
-1.10524E+000, -5.11015E-005
-1.11024E+000, -5.17227E-005
-1.11525E+000, -5.16952E-005
-1.12023E+000, -5.22172E-005
-1.12522E+000, -5.28345E-005
-1.13024E+000, -5.26319E-005
-1.13524E+000, -5.28488E-005
-1.14030E+000, -5.25634E-005
-1.14528E+000, -5.24436E-005
-1.15028E+000, -5.30058E-005
-1.15530E+000, -5.28263E-005
-1.16030E+000, -5.21953E-005
-1.16526E+000, -5.26816E-005
-1.17029E+000, -5.28008E-005
-1.17529E+000, -5.32817E-005
-1.18031E+000, -5.32233E-005
-1.18531E+000, -5.27576E-005
-1.19030E+000, -5.30822E-005
-1.19530E+000, -5.30167E-005
-1.20027E+000, -5.30887E-005
-1.20530E+000, -5.32285E-005
-1.21029E+000, -5.35658E-005
-1.21529E+000, -5.29006E-005
-1.22030E+000, -5.29263E-005
-1.22529E+000, -5.28517E-005
-1.23027E+000, -5.30414E-005
-1.23528E+000, -5.28916E-005
-1.24028E+000, -5.31107E-005
-1.24528E+000, -5.31260E-005
-1.25028E+000, -5.31396E-005
-1.25525E+000, -5.26725E-005
-1.26028E+000, -5.23687E-005
-1.26527E+000, -5.24017E-005
-1.27029E+000, -5.28455E-005
-1.27527E+000, -5.28300E-005
-1.28026E+000, -5.25271E-005
-1.28529E+000, -5.17388E-005
-1.29027E+000, -5.18825E-005
-1.29530E+000, -5.19273E-005
-1.30029E+000, -5.19621E-005
-1.30527E+000, -5.19584E-005
-1.31030E+000, -5.21050E-005
-1.31529E+000, -5.18388E-005
-1.32031E+000, -5.21330E-005
-1.32530E+000, -5.20543E-005
-1.33029E+000, -5.23317E-005
-1.33531E+000, -5.19610E-005
-1.34031E+000, -5.21710E-005
-1.34531E+000, -5.23148E-005
-1.35030E+000, -5.28938E-005
-1.35529E+000, -5.30052E-005
-1.36030E+000, -5.34944E-005
-1.36531E+000, -5.38130E-005
-1.37030E+000, -5.42512E-005
-1.37530E+000, -5.43693E-005
-1.38031E+000, -5.50651E-005
-1.38533E+000, -5.55267E-005
-1.39032E+000, -5.61551E-005
-1.39532E+000, -5.69593E-005
-1.40031E+000, -5.74934E-005
-1.40530E+000, -5.83711E-005
-1.41031E+000, -5.89447E-005
-1.41530E+000, -5.99286E-005
-1.42030E+000, -6.04962E-005
-1.42531E+000, -6.13675E-005
-1.43031E+000, -6.24049E-005
-1.43531E+000, -6.32252E-005
-1.44029E+000, -6.42809E-005
-1.44529E+000, -6.52742E-005
-1.45030E+000, -6.59907E-005
-1.45529E+000, -6.71482E-005
-1.46026E+000, -6.82353E-005
-1.46529E+000, -6.92467E-005
-1.47028E+000, -7.06304E-005
-1.47530E+000, -7.17386E-005
-1.48028E+000, -7.27765E-005
-1.48529E+000, -7.39807E-005
-1.49032E+000, -7.54875E-005
-1.49530E+000, -7.65420E-005
-1.50038E+000, -7.77828E-005
-1.50538E+000, -7.91283E-005
-1.51035E+000, -8.11058E-005
-1.51537E+000, -8.23581E-005
-1.52035E+000, -8.38177E-005
-1.52538E+000, -8.55369E-005
-1.53035E+000, -8.73986E-005
-1.53535E+000, -8.91695E-005
-1.54037E+000, -9.13294E-005
-1.54538E+000, -9.29426E-005
-1.55038E+000, -9.46851E-005
-1.55536E+000, -9.67672E-005
-1.56034E+000, -9.89220E-005
-1.56537E+000, -1.01324E-004
-1.57036E+000, -1.04116E-004
-1.57536E+000, -1.06125E-004
-1.58037E+000, -1.07872E-004
-1.58536E+000, -1.09672E-004
-1.59040E+000, -1.12448E-004
-1.59540E+000, -1.14768E-004
-1.60037E+000, -1.16669E-004
-1.60538E+000, -1.19468E-004
-1.61036E+000, -1.22053E-004
-1.61536E+000, -1.24569E-004
-1.62036E+000, -1.27648E-004
-1.62535E+000, -1.30244E-004
-1.63035E+000, -1.33345E-004
-1.63535E+000, -1.35912E-004
-1.64035E+000, -1.38983E-004
-1.64531E+000, -1.40947E-004
-1.65032E+000, -1.43622E-004
-1.65534E+000, -1.46181E-004
-1.66032E+000, -1.49417E-004
-1.66534E+000, -1.53243E-004
-1.67033E+000, -1.56758E-004
-1.67531E+000, -1.59407E-004
-1.68031E+000, -1.62476E-004
-1.68532E+000, -1.65600E-004
-1.69030E+000, -1.68575E-004
-1.69535E+000, -1.71560E-004
-1.70034E+000, -1.74478E-004
-1.70536E+000, -1.77691E-004
-1.71035E+000, -1.80390E-004
-1.71533E+000, -1.83013E-004
-1.72034E+000, -1.86666E-004
-1.72534E+000, -1.89828E-004
-1.73035E+000, -1.92637E-004
-1.73532E+000, -1.95479E-004
-1.74032E+000, -1.98942E-004
-1.74535E+000, -2.02450E-004
-1.75035E+000, -2.06568E-004
-1.75536E+000, -2.09265E-004
-1.76035E+000, -2.12006E-004
-1.76536E+000, -2.15427E-004
-1.77036E+000, -2.18257E-004
-1.77535E+000, -2.21360E-004
-1.78034E+000, -2.24355E-004
-1.78535E+000, -2.27364E-004
-1.79034E+000, -2.30064E-004
-1.79537E+000, -2.33043E-004
-1.80037E+000, -2.36511E-004
-1.80535E+000, -2.39910E-004
-1.81035E+000, -2.42464E-004
-1.81532E+000, -2.44376E-004
-1.82035E+000, -2.47516E-004
-1.82534E+000, -2.50909E-004
-1.83034E+000, -2.54159E-004
-1.83534E+000, -2.56898E-004
-1.84033E+000, -2.59645E-004
-1.84534E+000, -2.62529E-004
-1.85032E+000, -2.65430E-004
-1.85532E+000, -2.67905E-004
-1.86037E+000, -2.70495E-004
-1.86535E+000, -2.72572E-004
-1.87037E+000, -2.75053E-004
-1.87537E+000, -2.77733E-004
-1.88038E+000, -2.79604E-004
-1.88538E+000, -2.81992E-004
-1.89040E+000, -2.84703E-004
-1.89539E+000, -2.86499E-004
-1.90040E+000, -2.89409E-004
-1.90537E+000, -2.92128E-004
-1.91039E+000, -2.95521E-004
-1.91538E+000, -2.98772E-004
-1.92037E+000, -3.01604E-004
-1.92538E+000, -3.03381E-004
-1.93038E+000, -3.04956E-004
-1.93542E+000, -3.06424E-004
-1.94039E+000, -3.08532E-004
-1.94538E+000, -3.11443E-004
-1.95041E+000, -3.14394E-004
-1.95539E+000, -3.17465E-004
-1.96040E+000, -3.20638E-004
-1.96540E+000, -3.22251E-004
-1.97039E+000, -3.24187E-004
-1.97540E+000, -3.27534E-004
-1.98041E+000, -3.30906E-004
-1.98539E+000, -3.34740E-004
-1.99041E+000, -3.37856E-004
-1.99540E+000, -3.40246E-004
-2.00042E+000, -3.41755E-004
-1.99543E+000, -3.29479E-004
-1.99044E+000, -3.20462E-004
-1.98543E+000, -3.11286E-004
-1.98043E+000, -3.04312E-004
-1.97545E+000, -2.97290E-004
-1.97043E+000, -2.90920E-004
-1.96543E+000, -2.83678E-004
-1.96046E+000, -2.78058E-004
-1.95545E+000, -2.72784E-004
-1.95045E+000, -2.66889E-004
-1.94543E+000, -2.61802E-004
-1.94044E+000, -2.56977E-004
-1.93546E+000, -2.52184E-004
-1.93043E+000, -2.47471E-004
-1.92544E+000, -2.43534E-004
-1.92043E+000, -2.39249E-004
-1.91544E+000, -2.34616E-004
-1.91045E+000, -2.30084E-004
-1.90541E+000, -2.25914E-004
-1.90043E+000, -2.21296E-004
-1.89541E+000, -2.17314E-004
-1.89040E+000, -2.12935E-004
-1.88541E+000, -2.08900E-004
-1.88041E+000, -2.04604E-004
-1.87541E+000, -2.00304E-004
-1.87041E+000, -1.96702E-004
-1.86541E+000, -1.93305E-004
-1.86042E+000, -1.89521E-004
-1.85537E+000, -1.85170E-004
-1.85038E+000, -1.81153E-004
-1.84540E+000, -1.77496E-004
-1.84040E+000, -1.73030E-004
-1.83542E+000, -1.69225E-004
-1.83040E+000, -1.65858E-004
-1.82540E+000, -1.62035E-004
-1.82040E+000, -1.57657E-004
-1.81540E+000, -1.52973E-004
-1.81040E+000, -1.49010E-004
-1.80541E+000, -1.44593E-004
-1.80042E+000, -1.41158E-004
-1.79542E+000, -1.37319E-004
-1.79040E+000, -1.33251E-004
-1.78539E+000, -1.29101E-004
-1.78038E+000, -1.25992E-004
-1.77539E+000, -1.22649E-004
-1.77040E+000, -1.18514E-004
-1.76538E+000, -1.14556E-004
-1.76038E+000, -1.10463E-004
-1.75541E+000, -1.07254E-004
-1.75039E+000, -1.03676E-004
-1.74541E+000, -1.00521E-004
-1.74038E+000, -9.71057E-005
-1.73538E+000, -9.35625E-005
-1.73040E+000, -9.04845E-005
-1.72538E+000, -8.73290E-005
-1.72038E+000, -8.42945E-005
-1.71537E+000, -8.13929E-005
-1.71040E+000, -7.87176E-005
-1.70538E+000, -7.61092E-005
-1.70037E+000, -7.35220E-005
-1.69540E+000, -7.12697E-005
-1.69035E+000, -6.86651E-005
-1.68536E+000, -6.64812E-005
-1.68037E+000, -6.45142E-005
-1.67536E+000, -6.20762E-005
-1.67037E+000, -5.99595E-005
-1.66539E+000, -5.82066E-005
-1.66038E+000, -5.66360E-005
-1.65541E+000, -5.47068E-005
-1.65038E+000, -5.31403E-005
-1.64538E+000, -5.14534E-005
-1.64040E+000, -4.99304E-005
-1.63540E+000, -4.83424E-005
-1.63041E+000, -4.70557E-005
-1.62539E+000, -4.56270E-005
-1.62040E+000, -4.43518E-005
-1.61540E+000, -4.35006E-005
-1.61039E+000, -4.24981E-005
-1.60542E+000, -4.14829E-005
-1.60041E+000, -4.09530E-005
-1.59542E+000, -3.97695E-005
-1.59042E+000, -3.89275E-005
-1.58540E+000, -3.80785E-005
-1.58040E+000, -3.72080E-005
-1.57540E+000, -3.63934E-005
-1.57040E+000, -3.60036E-005
-1.56541E+000, -3.53790E-005
-1.56039E+000, -3.48375E-005
-1.55541E+000, -3.38657E-005
-1.55042E+000, -3.34324E-005
-1.54542E+000, -3.28671E-005
-1.54042E+000, -3.26001E-005
-1.53539E+000, -3.21005E-005
-1.53040E+000, -3.18150E-005
-1.52542E+000, -3.11876E-005
-1.52041E+000, -3.10225E-005
-1.51543E+000, -3.05693E-005
-1.51040E+000, -3.02826E-005
-1.50542E+000, -3.00422E-005
-1.50041E+000, -2.98574E-005
-1.49534E+000, -2.96793E-005
-1.49034E+000, -2.97879E-005
-1.48531E+000, -2.94472E-005
-1.48032E+000, -2.94909E-005
-1.47534E+000, -2.95615E-005
-1.47032E+000, -2.91680E-005
-1.46534E+000, -2.90850E-005
-1.46031E+000, -2.89898E-005
-1.45532E+000, -2.87983E-005
-1.45033E+000, -2.92898E-005
-1.44533E+000, -2.92727E-005
-1.44034E+000, -2.93832E-005
-1.43535E+000, -2.89719E-005
-1.43035E+000, -2.96078E-005
-1.42535E+000, -2.95760E-005
-1.42034E+000, -2.95257E-005
-1.41537E+000, -2.97482E-005
-1.41036E+000, -3.00605E-005
-1.40535E+000, -3.01843E-005
-1.40037E+000, -3.04055E-005
-1.39537E+000, -3.03982E-005
-1.39036E+000, -3.07552E-005
-1.38538E+000, -3.02680E-005
-1.38035E+000, -3.08910E-005
-1.37536E+000, -3.11365E-005
-1.37035E+000, -3.15203E-005
-1.36535E+000, -3.14049E-005
-1.36036E+000, -3.16454E-005
-1.35535E+000, -3.17598E-005
-1.35035E+000, -3.16791E-005
-1.34536E+000, -3.18742E-005
-1.34035E+000, -3.22258E-005
-1.33535E+000, -3.21144E-005
-1.33033E+000, -3.24942E-005
-1.32534E+000, -3.21489E-005
-1.32035E+000, -3.25401E-005
-1.31533E+000, -3.22355E-005
-1.31036E+000, -3.31669E-005
-1.30533E+000, -3.25551E-005
-1.30034E+000, -3.29483E-005
-1.29536E+000, -3.21897E-005
-1.29034E+000, -3.21026E-005
-1.28535E+000, -3.23383E-005
-1.28030E+000, -3.27031E-005
-1.27532E+000, -3.28046E-005
-1.27033E+000, -3.24183E-005
-1.26532E+000, -3.26179E-005
-1.26033E+000, -3.27098E-005
-1.25530E+000, -3.26587E-005
-1.25032E+000, -3.26723E-005
-1.24533E+000, -3.25665E-005
-1.24032E+000, -3.28316E-005
-1.23532E+000, -3.28584E-005
-1.23033E+000, -3.26582E-005
-1.22533E+000, -3.30659E-005
-1.22035E+000, -3.27069E-005
-1.21535E+000, -3.29125E-005
-1.21034E+000, -3.25416E-005
-1.20534E+000, -3.23248E-005
-1.20031E+000, -3.24738E-005
-1.19535E+000, -3.23664E-005
-1.19034E+000, -3.23104E-005
-1.18535E+000, -3.24061E-005
-1.18035E+000, -3.23853E-005
-1.17533E+000, -3.25075E-005
-1.17034E+000, -3.18167E-005
-1.16532E+000, -3.18416E-005
-1.16034E+000, -3.11468E-005
-1.15534E+000, -3.16235E-005
-1.15032E+000, -3.16722E-005
-1.14532E+000, -3.15400E-005
-1.14034E+000, -3.06096E-005
-1.13526E+000, -3.09638E-005
-1.13027E+000, -3.09805E-005
-1.12525E+000, -3.09143E-005
-1.12026E+000, -3.05925E-005
-1.11528E+000, -2.99845E-005
-1.11027E+000, -3.04001E-005
-1.10529E+000, -3.12364E-005
-1.10027E+000, -3.11979E-005
-1.09527E+000, -3.06633E-005
-1.09027E+000, -3.09530E-005
-1.08527E+000, -3.06337E-005
-1.08029E+000, -3.06626E-005
-1.07526E+000, -3.14866E-005
-1.07027E+000, -3.13663E-005
-1.06527E+000, -3.08508E-005
-1.06026E+000, -3.18430E-005
-1.05526E+000, -3.12137E-005
-1.05023E+000, -3.06215E-005
-1.04526E+000, -3.11962E-005
-1.04028E+000, -3.14257E-005
-1.03526E+000, -3.13038E-005
-1.03025E+000, -3.11911E-005
-1.02527E+000, -3.14868E-005
-1.02027E+000, -3.17012E-005
-1.01528E+000, -3.16941E-005
-1.01027E+000, -3.14636E-005
-1.00529E+000, -3.13168E-005
-1.00031E+000, -3.18773E-005
-9.95283E-001, -3.11326E-005
-9.90310E-001, -3.14141E-005
-9.85310E-001, -3.16601E-005
-9.80314E-001, -3.10468E-005
-9.75317E-001, -3.09973E-005
-9.70272E-001, -3.15255E-005
-9.65291E-001, -3.10601E-005
-9.60270E-001, -3.09413E-005
-9.55290E-001, -3.08487E-005
-9.50304E-001, -3.08210E-005
-9.45285E-001, -3.13302E-005
-9.40287E-001, -3.14014E-005
-9.35305E-001, -3.08611E-005
-9.30284E-001, -3.08725E-005
-9.25284E-001, -3.04633E-005
-9.20257E-001, -3.10293E-005
-9.15281E-001, -3.07600E-005
-9.10282E-001, -3.07495E-005
-9.05276E-001, -3.05377E-005
-9.00258E-001, -3.03355E-005
-8.95254E-001, -3.05498E-005
-8.90270E-001, -3.06047E-005
-8.85267E-001, -3.05824E-005
-8.80269E-001, -3.02096E-005
-8.75284E-001, -3.01852E-005
-8.70247E-001, -3.02539E-005
-8.65252E-001, -3.03581E-005
-8.60260E-001, -3.04179E-005
-8.55249E-001, -2.99374E-005
-8.50255E-001, -2.95723E-005
-8.45243E-001, -2.95380E-005
-8.40254E-001, -2.97054E-005
-8.35271E-001, -2.91608E-005
-8.30254E-001, -2.88872E-005
-8.25260E-001, -2.86555E-005
-8.20275E-001, -2.88248E-005
-8.15260E-001, -2.87028E-005
-8.10258E-001, -2.80517E-005
-8.05249E-001, -2.79626E-005
-8.00258E-001, -2.72572E-005
##END=$$ End of the data block
