##TITLE=Spectrum
##JCAMP-DX=5.00 $$ chemotion-converter-app (1.5.0)
##DATA TYPE=CYCLIC VOLTAMMETRY
##DATA CLASS=XYPOINTS
##ORIGIN=
##OWNER=
##XUNITS=Voltage in V
##YUNITS=Current in A
##DATE=27.4.2022
##SCAN_RATE=0.0999998
##STEP_SIZE=0.005
##CYCLES=10
##SOFTWARE_VERSION=7.8.6
##SOFTWARE=Framework
##VOLTAGE_LIMIT_END=-8.00000E-001
##SERIAL=IFC1010-28176
##FIRSTX=-8.05216E-001
##LASTX=-8.00256E-001
##MINX=-2.00039
##MAXX=2.2250738585072014e-308
##MINY=-0.000290976
##MAXY=2.2250738585072014e-308
##NPOINTS=480
##FIRSTY=-4.07205E-005
##XUNITS=Voltage in V
##YUNITS=Current in A
##XYPOINTS=(XY..XY)
-8.05216E-001, -4.07205E-005
-8.10233E-001, -4.23207E-005
-8.15227E-001, -4.38409E-005
-8.20235E-001, -4.44170E-005
-8.25219E-001, -4.53675E-005
-8.30216E-001, -4.63119E-005
-8.35227E-001, -4.70347E-005
-8.40212E-001, -4.74693E-005
-8.45202E-001, -4.76623E-005
-8.50217E-001, -4.84154E-005
-8.55218E-001, -4.88612E-005
-8.60216E-001, -4.91862E-005
-8.65212E-001, -4.95166E-005
-8.70197E-001, -5.01136E-005
-8.75233E-001, -5.03042E-005
-8.80225E-001, -5.06186E-005
-8.85220E-001, -5.05158E-005
-8.90227E-001, -5.03876E-005
-8.95218E-001, -5.06673E-005
-9.00219E-001, -5.10916E-005
-9.05220E-001, -5.14623E-005
-9.10229E-001, -5.15161E-005
-9.15221E-001, -5.11335E-005
-9.20215E-001, -5.15542E-005
-9.25246E-001, -5.20793E-005
-9.30254E-001, -5.21383E-005
-9.35259E-001, -5.23080E-005
-9.40253E-001, -5.24219E-005
-9.45247E-001, -5.28916E-005
-9.50254E-001, -5.34026E-005
-9.55252E-001, -5.35117E-005
-9.60219E-001, -5.37568E-005
-9.65243E-001, -5.39663E-005
-9.70225E-001, -5.45258E-005
-9.75270E-001, -5.45578E-005
-9.80255E-001, -5.51274E-005
-9.85265E-001, -5.53547E-005
-9.90260E-001, -5.56434E-005
-9.95229E-001, -5.60322E-005
-1.00025E+000, -5.60159E-005
-1.00524E+000, -5.62564E-005
-1.01022E+000, -5.66220E-005
-1.01523E+000, -5.65136E-005
-1.02023E+000, -5.66181E-005
-1.02523E+000, -5.73370E-005
-1.03022E+000, -5.74156E-005
-1.03523E+000, -5.74543E-005
-1.04023E+000, -5.74510E-005
-1.04522E+000, -5.76091E-005
-1.05020E+000, -5.77767E-005
-1.05522E+000, -5.80008E-005
-1.06022E+000, -5.76812E-005
-1.06523E+000, -5.77647E-005
-1.07022E+000, -5.78477E-005
-1.07521E+000, -5.83285E-005
-1.08026E+000, -5.80484E-005
-1.08524E+000, -5.80595E-005
-1.09024E+000, -5.77948E-005
-1.09524E+000, -5.79436E-005
-1.10023E+000, -5.81600E-005
-1.10523E+000, -5.77642E-005
-1.11023E+000, -5.79000E-005
-1.11524E+000, -5.76555E-005
-1.12023E+000, -5.73648E-005
-1.12521E+000, -5.75279E-005
-1.13023E+000, -5.74261E-005
-1.13524E+000, -5.74685E-005
-1.14031E+000, -5.76659E-005
-1.14528E+000, -5.75966E-005
-1.15028E+000, -5.70042E-005
-1.15530E+000, -5.69727E-005
-1.16030E+000, -5.69348E-005
-1.16527E+000, -5.70880E-005
-1.17030E+000, -5.65429E-005
-1.17528E+000, -5.66935E-005
-1.18031E+000, -5.65612E-005
-1.18530E+000, -5.66804E-005
-1.19030E+000, -5.66152E-005
-1.19530E+000, -5.60658E-005
-1.20027E+000, -5.61729E-005
-1.20530E+000, -5.68264E-005
-1.21028E+000, -5.58642E-005
-1.21528E+000, -5.60523E-005
-1.22029E+000, -5.57184E-005
-1.22528E+000, -5.58371E-005
-1.23027E+000, -5.58720E-005
-1.23528E+000, -5.60996E-005
-1.24028E+000, -5.57090E-005
-1.24529E+000, -5.56261E-005
-1.25029E+000, -5.52202E-005
-1.25527E+000, -5.46607E-005
-1.26030E+000, -5.49953E-005
-1.26529E+000, -5.49543E-005
-1.27029E+000, -5.44136E-005
-1.27527E+000, -5.39984E-005
-1.28026E+000, -5.36974E-005
-1.28530E+000, -5.34821E-005
-1.29029E+000, -5.34420E-005
-1.29530E+000, -5.29919E-005
-1.30029E+000, -5.29537E-005
-1.30528E+000, -5.21491E-005
-1.31030E+000, -5.25068E-005
-1.31530E+000, -5.20574E-005
-1.32032E+000, -5.13549E-005
-1.32531E+000, -5.15797E-005
-1.33029E+000, -5.12245E-005
-1.33531E+000, -5.09926E-005
-1.34032E+000, -5.14328E-005
-1.34533E+000, -5.13808E-005
-1.35030E+000, -5.12685E-005
-1.35530E+000, -5.13639E-005
-1.36032E+000, -5.14036E-005
-1.36531E+000, -5.12282E-005
-1.37032E+000, -5.13208E-005
-1.37534E+000, -5.15987E-005
-1.38031E+000, -5.21685E-005
-1.38532E+000, -5.26524E-005
-1.39031E+000, -5.30852E-005
-1.39530E+000, -5.34419E-005
-1.40031E+000, -5.39195E-005
-1.40529E+000, -5.47864E-005
-1.41031E+000, -5.51699E-005
-1.41531E+000, -5.57390E-005
-1.42032E+000, -5.66647E-005
-1.42533E+000, -5.75797E-005
-1.43033E+000, -5.82803E-005
-1.43533E+000, -5.95754E-005
-1.44029E+000, -6.05553E-005
-1.44530E+000, -6.15106E-005
-1.45029E+000, -6.28930E-005
-1.45529E+000, -6.39132E-005
-1.46027E+000, -6.49465E-005
-1.46529E+000, -6.67054E-005
-1.47029E+000, -6.75633E-005
-1.47530E+000, -6.87553E-005
-1.48029E+000, -7.02366E-005
-1.48528E+000, -7.17428E-005
-1.49030E+000, -7.33188E-005
-1.49529E+000, -7.49131E-005
-1.50035E+000, -7.64143E-005
-1.50536E+000, -7.78294E-005
-1.51034E+000, -7.99447E-005
-1.51536E+000, -8.12186E-005
-1.52034E+000, -8.27234E-005
-1.52537E+000, -8.38733E-005
-1.53036E+000, -8.52075E-005
-1.53535E+000, -8.70332E-005
-1.54036E+000, -8.89734E-005
-1.54538E+000, -9.08509E-005
-1.55040E+000, -9.27993E-005
-1.55537E+000, -9.48381E-005
-1.56037E+000, -9.67071E-005
-1.56538E+000, -9.84640E-005
-1.57036E+000, -1.00847E-004
-1.57536E+000, -1.02734E-004
-1.58038E+000, -1.05325E-004
-1.58537E+000, -1.06985E-004
-1.59040E+000, -1.08773E-004
-1.59539E+000, -1.11978E-004
-1.60036E+000, -1.13914E-004
-1.60537E+000, -1.15900E-004
-1.61035E+000, -1.18180E-004
-1.61536E+000, -1.20035E-004
-1.62036E+000, -1.22308E-004
-1.62536E+000, -1.23834E-004
-1.63035E+000, -1.26343E-004
-1.63535E+000, -1.28648E-004
-1.64036E+000, -1.30946E-004
-1.64532E+000, -1.33480E-004
-1.65034E+000, -1.35283E-004
-1.65535E+000, -1.37578E-004
-1.66033E+000, -1.39833E-004
-1.66534E+000, -1.42799E-004
-1.67033E+000, -1.45900E-004
-1.67532E+000, -1.49120E-004
-1.68032E+000, -1.52407E-004
-1.68533E+000, -1.53615E-004
-1.69031E+000, -1.55752E-004
-1.69536E+000, -1.58386E-004
-1.70034E+000, -1.61570E-004
-1.70536E+000, -1.63993E-004
-1.71036E+000, -1.65806E-004
-1.71534E+000, -1.67652E-004
-1.72034E+000, -1.70220E-004
-1.72533E+000, -1.72569E-004
-1.73035E+000, -1.75131E-004
-1.73533E+000, -1.77765E-004
-1.74031E+000, -1.80669E-004
-1.74536E+000, -1.83312E-004
-1.75037E+000, -1.86543E-004
-1.75536E+000, -1.89011E-004
-1.76036E+000, -1.91588E-004
-1.76535E+000, -1.93502E-004
-1.77035E+000, -1.95810E-004
-1.77533E+000, -1.97960E-004
-1.78033E+000, -2.00201E-004
-1.78535E+000, -2.02132E-004
-1.79035E+000, -2.04512E-004
-1.79536E+000, -2.06708E-004
-1.80036E+000, -2.08662E-004
-1.80535E+000, -2.10354E-004
-1.81035E+000, -2.12569E-004
-1.81532E+000, -2.14501E-004
-1.82034E+000, -2.16266E-004
-1.82534E+000, -2.18599E-004
-1.83034E+000, -2.20557E-004
-1.83534E+000, -2.22364E-004
-1.84033E+000, -2.24209E-004
-1.84535E+000, -2.25806E-004
-1.85033E+000, -2.27710E-004
-1.85532E+000, -2.29747E-004
-1.86039E+000, -2.32103E-004
-1.86538E+000, -2.33753E-004
-1.87040E+000, -2.35658E-004
-1.87539E+000, -2.37038E-004
-1.88038E+000, -2.39472E-004
-1.88539E+000, -2.41078E-004
-1.89040E+000, -2.42606E-004
-1.89538E+000, -2.44444E-004
-1.90039E+000, -2.46980E-004
-1.90537E+000, -2.48976E-004
-1.91039E+000, -2.50797E-004
-1.91539E+000, -2.52546E-004
-1.92037E+000, -2.54921E-004
-1.92538E+000, -2.56976E-004
-1.93038E+000, -2.59253E-004
-1.93542E+000, -2.61392E-004
-1.94040E+000, -2.62782E-004
-1.94540E+000, -2.65163E-004
-1.95041E+000, -2.67408E-004
-1.95539E+000, -2.69272E-004
-1.96040E+000, -2.71173E-004
-1.96540E+000, -2.72907E-004
-1.97038E+000, -2.74622E-004
-1.97540E+000, -2.77469E-004
-1.98040E+000, -2.80238E-004
-1.98540E+000, -2.82736E-004
-1.99040E+000, -2.84914E-004
-1.99541E+000, -2.87816E-004
-2.00039E+000, -2.90976E-004
-1.99544E+000, -2.81129E-004
-1.99045E+000, -2.73943E-004
-1.98544E+000, -2.68348E-004
-1.98044E+000, -2.62316E-004
-1.97544E+000, -2.57100E-004
-1.97043E+000, -2.51234E-004
-1.96544E+000, -2.45779E-004
-1.96046E+000, -2.40834E-004
-1.95544E+000, -2.36395E-004
-1.95045E+000, -2.32083E-004
-1.94543E+000, -2.27558E-004
-1.94043E+000, -2.22800E-004
-1.93544E+000, -2.18026E-004
-1.93043E+000, -2.14131E-004
-1.92543E+000, -2.10855E-004
-1.92041E+000, -2.06820E-004
-1.91543E+000, -2.03231E-004
-1.91044E+000, -1.99647E-004
-1.90542E+000, -1.96660E-004
-1.90045E+000, -1.92620E-004
-1.89544E+000, -1.88350E-004
-1.89044E+000, -1.84870E-004
-1.88544E+000, -1.81312E-004
-1.88044E+000, -1.78425E-004
-1.87543E+000, -1.75361E-004
-1.87044E+000, -1.72316E-004
-1.86542E+000, -1.68949E-004
-1.86042E+000, -1.66732E-004
-1.85538E+000, -1.62794E-004
-1.85038E+000, -1.59936E-004
-1.84540E+000, -1.56698E-004
-1.84039E+000, -1.54035E-004
-1.83541E+000, -1.51522E-004
-1.83039E+000, -1.48500E-004
-1.82539E+000, -1.45774E-004
-1.82040E+000, -1.42994E-004
-1.81539E+000, -1.40753E-004
-1.81040E+000, -1.38162E-004
-1.80541E+000, -1.36199E-004
-1.80043E+000, -1.33536E-004
-1.79541E+000, -1.30990E-004
-1.79040E+000, -1.28267E-004
-1.78539E+000, -1.25695E-004
-1.78037E+000, -1.22730E-004
-1.77537E+000, -1.20072E-004
-1.77040E+000, -1.17294E-004
-1.76537E+000, -1.14625E-004
-1.76037E+000, -1.11896E-004
-1.75540E+000, -1.09291E-004
-1.75039E+000, -1.06898E-004
-1.74541E+000, -1.04704E-004
-1.74038E+000, -1.02499E-004
-1.73538E+000, -1.00155E-004
-1.73039E+000, -9.73528E-005
-1.72538E+000, -9.49376E-005
-1.72038E+000, -9.25886E-005
-1.71536E+000, -9.02876E-005
-1.71040E+000, -8.82850E-005
-1.70539E+000, -8.63190E-005
-1.70038E+000, -8.42395E-005
-1.69540E+000, -8.20837E-005
-1.69036E+000, -8.07218E-005
-1.68537E+000, -7.91270E-005
-1.68037E+000, -7.71905E-005
-1.67537E+000, -7.50512E-005
-1.67038E+000, -7.33477E-005
-1.66539E+000, -7.16978E-005
-1.66038E+000, -7.03512E-005
-1.65540E+000, -6.90851E-005
-1.65038E+000, -6.83649E-005
-1.64537E+000, -6.72443E-005
-1.64040E+000, -6.59576E-005
-1.63541E+000, -6.48219E-005
-1.63042E+000, -6.38387E-005
-1.62540E+000, -6.32082E-005
-1.62042E+000, -6.28827E-005
-1.61542E+000, -6.17688E-005
-1.61039E+000, -6.07158E-005
-1.60542E+000, -5.96160E-005
-1.60041E+000, -5.91127E-005
-1.59542E+000, -5.81677E-005
-1.59042E+000, -5.74678E-005
-1.58539E+000, -5.71032E-005
-1.58042E+000, -5.62847E-005
-1.57541E+000, -5.52977E-005
-1.57041E+000, -5.48288E-005
-1.56543E+000, -5.41210E-005
-1.56041E+000, -5.33816E-005
-1.55542E+000, -5.31417E-005
-1.55042E+000, -5.28377E-005
-1.54543E+000, -5.23087E-005
-1.54041E+000, -5.19165E-005
-1.53539E+000, -5.16569E-005
-1.53039E+000, -5.12305E-005
-1.52541E+000, -5.11391E-005
-1.52039E+000, -5.09438E-005
-1.51539E+000, -5.07430E-005
-1.51037E+000, -5.03303E-005
-1.50540E+000, -5.02378E-005
-1.50040E+000, -5.00295E-005
-1.49534E+000, -4.99716E-005
-1.49034E+000, -4.96227E-005
-1.48531E+000, -4.95081E-005
-1.48032E+000, -4.92892E-005
-1.47534E+000, -4.93823E-005
-1.47033E+000, -4.93586E-005
-1.46535E+000, -4.89188E-005
-1.46032E+000, -4.84800E-005
-1.45533E+000, -4.90604E-005
-1.45034E+000, -4.91337E-005
-1.44533E+000, -4.90043E-005
-1.44032E+000, -4.87557E-005
-1.43535E+000, -4.85855E-005
-1.43035E+000, -4.86931E-005
-1.42537E+000, -4.90500E-005
-1.42036E+000, -4.87288E-005
-1.41537E+000, -4.85352E-005
-1.41037E+000, -4.86048E-005
-1.40536E+000, -4.81965E-005
-1.40037E+000, -4.82122E-005
-1.39537E+000, -4.80499E-005
-1.39037E+000, -4.79809E-005
-1.38538E+000, -4.73595E-005
-1.38034E+000, -4.75819E-005
-1.37536E+000, -4.71778E-005
-1.37034E+000, -4.70832E-005
-1.36534E+000, -4.65094E-005
-1.36036E+000, -4.63722E-005
-1.35535E+000, -4.59722E-005
-1.35034E+000, -4.60048E-005
-1.34536E+000, -4.52374E-005
-1.34035E+000, -4.46784E-005
-1.33536E+000, -4.43296E-005
-1.33033E+000, -4.42400E-005
-1.32534E+000, -4.36903E-005
-1.32035E+000, -4.35506E-005
-1.31533E+000, -4.30938E-005
-1.31036E+000, -4.27466E-005
-1.30532E+000, -4.19192E-005
-1.30033E+000, -4.20510E-005
-1.29535E+000, -4.15409E-005
-1.29034E+000, -4.05267E-005
-1.28534E+000, -4.00993E-005
-1.28031E+000, -4.02639E-005
-1.27533E+000, -4.03267E-005
-1.27033E+000, -4.00882E-005
-1.26532E+000, -3.89946E-005
-1.26032E+000, -3.89318E-005
-1.25530E+000, -3.85200E-005
-1.25031E+000, -3.84661E-005
-1.24534E+000, -3.79883E-005
-1.24034E+000, -3.84763E-005
-1.23532E+000, -3.72172E-005
-1.23034E+000, -3.73628E-005
-1.22533E+000, -3.65054E-005
-1.22033E+000, -3.65074E-005
-1.21532E+000, -3.69725E-005
-1.21032E+000, -3.66639E-005
-1.20534E+000, -3.58320E-005
-1.20032E+000, -3.59331E-005
-1.19534E+000, -3.60818E-005
-1.19033E+000, -3.55372E-005
-1.18535E+000, -3.45495E-005
-1.18035E+000, -3.51183E-005
-1.17533E+000, -3.46566E-005
-1.17034E+000, -3.49591E-005
-1.16533E+000, -3.46992E-005
-1.16034E+000, -3.40217E-005
-1.15536E+000, -3.36290E-005
-1.15034E+000, -3.46308E-005
-1.14535E+000, -3.41121E-005
-1.14036E+000, -3.33111E-005
-1.13529E+000, -3.35862E-005
-1.13030E+000, -3.31432E-005
-1.12527E+000, -3.32884E-005
-1.12028E+000, -3.31696E-005
-1.11528E+000, -3.24226E-005
-1.11028E+000, -3.26983E-005
-1.10529E+000, -3.24799E-005
-1.10026E+000, -3.27386E-005
-1.09528E+000, -3.29244E-005
-1.09030E+000, -3.35146E-005
-1.08529E+000, -3.29067E-005
-1.08031E+000, -3.29235E-005
-1.07526E+000, -3.26801E-005
-1.07027E+000, -3.30542E-005
-1.06527E+000, -3.23168E-005
-1.06027E+000, -3.25548E-005
-1.05526E+000, -3.24674E-005
-1.05024E+000, -3.24946E-005
-1.04526E+000, -3.34305E-005
-1.04028E+000, -3.29834E-005
-1.03528E+000, -3.19365E-005
-1.03027E+000, -3.24951E-005
-1.02528E+000, -3.22412E-005
-1.02028E+000, -3.24395E-005
-1.01529E+000, -3.26221E-005
-1.01028E+000, -3.25521E-005
-1.00528E+000, -3.28436E-005
-1.00029E+000, -3.25386E-005
-9.95255E-001, -3.21153E-005
-9.90304E-001, -3.30533E-005
-9.85301E-001, -3.23031E-005
-9.80304E-001, -3.16574E-005
-9.75300E-001, -3.24284E-005
-9.70282E-001, -3.35433E-005
-9.65306E-001, -3.34465E-005
-9.60294E-001, -3.28874E-005
-9.55311E-001, -3.25373E-005
-9.50306E-001, -3.35211E-005
-9.45286E-001, -3.36000E-005
-9.40290E-001, -3.36478E-005
-9.35295E-001, -3.31427E-005
-9.30274E-001, -3.35578E-005
-9.25272E-001, -3.29640E-005
-9.20246E-001, -3.36280E-005
-9.15260E-001, -3.37379E-005
-9.10280E-001, -3.39375E-005
-9.05291E-001, -3.38196E-005
-9.00286E-001, -3.42632E-005
-8.95274E-001, -3.42736E-005
-8.90279E-001, -3.39186E-005
-8.85274E-001, -3.38717E-005
-8.80264E-001, -3.43267E-005
-8.75278E-001, -3.40541E-005
-8.70241E-001, -3.38169E-005
-8.65254E-001, -3.33866E-005
-8.60254E-001, -3.40995E-005
-8.55250E-001, -3.35473E-005
-8.50252E-001, -3.35316E-005
-8.45234E-001, -3.39012E-005
-8.40242E-001, -3.37362E-005
-8.35256E-001, -3.27025E-005
-8.30244E-001, -3.27036E-005
-8.25236E-001, -3.28719E-005
-8.20246E-001, -3.21378E-005
-8.15259E-001, -3.19578E-005
-8.10269E-001, -3.21419E-005
-8.05250E-001, -3.14477E-005
-8.00256E-001, -3.11451E-005
##END=$$ End of the data block
