##TITLE=Spectrum
##JCAMP-DX=5.00 $$ chemotion-converter-app (1.4.0)
##DATA TYPE=CYCLIC VOLTAMMETRY
##DATA CLASS=XYPOINTS
##ORIGIN=
##OWNER=
##XUNITS=Voltage in V
##YUNITS=Current in A
##DATE=27.4.2022
##SCAN_RATE=0.0999998
##STEP_SIZE=0.005
##CYCLES=10
##SOFTWARE_VERSION=7.8.6
##SOFTWARE=Framework
##VOLTAGE_LIMIT_END=-8.00000E-001
##SERIAL=IFC1010-28176
##FIRSTX=-8.05206E-001
##LASTX=-8.00255E-001
##MINX=-2.0004
##MAXX=2.2250738585072014e-308
##MINY=-0.000307203
##MAXY=2.2250738585072014e-308
##NPOINTS=480
##FIRSTY=-3.69398E-005
##XUNITS=Voltage in V
##YUNITS=Current in A
##XYPOINTS=(XY..XY)
-8.05206E-001, -3.69398E-005
-8.10224E-001, -3.86731E-005
-8.15211E-001, -3.99419E-005
-8.20216E-001, -4.14438E-005
-8.25204E-001, -4.16177E-005
-8.30198E-001, -4.28906E-005
-8.35206E-001, -4.34929E-005
-8.40205E-001, -4.42751E-005
-8.45184E-001, -4.45563E-005
-8.50200E-001, -4.51293E-005
-8.55194E-001, -4.52555E-005
-8.60214E-001, -4.63679E-005
-8.65214E-001, -4.74328E-005
-8.70192E-001, -4.73641E-005
-8.75237E-001, -4.78220E-005
-8.80235E-001, -4.81576E-005
-8.85225E-001, -4.84843E-005
-8.90217E-001, -4.88885E-005
-8.95220E-001, -4.93049E-005
-9.00230E-001, -4.96868E-005
-9.05214E-001, -4.98352E-005
-9.10223E-001, -5.02919E-005
-9.15221E-001, -5.06840E-005
-9.20215E-001, -5.11281E-005
-9.25236E-001, -5.09349E-005
-9.30245E-001, -5.11058E-005
-9.35260E-001, -5.18278E-005
-9.40246E-001, -5.17934E-005
-9.45226E-001, -5.15945E-005
-9.50242E-001, -5.20925E-005
-9.55245E-001, -5.17764E-005
-9.60216E-001, -5.24262E-005
-9.65228E-001, -5.25525E-005
-9.70222E-001, -5.33929E-005
-9.75262E-001, -5.32551E-005
-9.80246E-001, -5.32444E-005
-9.85243E-001, -5.34501E-005
-9.90255E-001, -5.39939E-005
-9.95211E-001, -5.38710E-005
-1.00022E+000, -5.35868E-005
-1.00522E+000, -5.39035E-005
-1.01020E+000, -5.41355E-005
-1.01523E+000, -5.47159E-005
-1.02021E+000, -5.45270E-005
-1.02521E+000, -5.45068E-005
-1.03021E+000, -5.43457E-005
-1.03521E+000, -5.49342E-005
-1.04022E+000, -5.49652E-005
-1.04521E+000, -5.42625E-005
-1.05019E+000, -5.43488E-005
-1.05521E+000, -5.43091E-005
-1.06020E+000, -5.41135E-005
-1.06523E+000, -5.36222E-005
-1.07022E+000, -5.35042E-005
-1.07521E+000, -5.31357E-005
-1.08026E+000, -5.27145E-005
-1.08525E+000, -5.27002E-005
-1.09024E+000, -5.29835E-005
-1.09524E+000, -5.22384E-005
-1.10023E+000, -5.18737E-005
-1.10525E+000, -5.20934E-005
-1.11024E+000, -5.21308E-005
-1.11525E+000, -5.21206E-005
-1.12024E+000, -5.14873E-005
-1.12522E+000, -5.10145E-005
-1.13024E+000, -5.11469E-005
-1.13524E+000, -5.11658E-005
-1.14032E+000, -5.10598E-005
-1.14530E+000, -5.05989E-005
-1.15029E+000, -5.09154E-005
-1.15531E+000, -5.02889E-005
-1.16031E+000, -5.07842E-005
-1.16528E+000, -5.07784E-005
-1.17029E+000, -5.04090E-005
-1.17529E+000, -5.06628E-005
-1.18032E+000, -5.03217E-005
-1.18531E+000, -5.05959E-005
-1.19030E+000, -5.03202E-005
-1.19530E+000, -5.10396E-005
-1.20028E+000, -5.06662E-005
-1.20530E+000, -5.07553E-005
-1.21030E+000, -5.04949E-005
-1.21530E+000, -5.05604E-005
-1.22032E+000, -5.06553E-005
-1.22529E+000, -5.05667E-005
-1.23029E+000, -5.03604E-005
-1.23529E+000, -5.05143E-005
-1.24028E+000, -4.99835E-005
-1.24528E+000, -5.02282E-005
-1.25028E+000, -5.02138E-005
-1.25527E+000, -4.98763E-005
-1.26029E+000, -5.01126E-005
-1.26528E+000, -4.97297E-005
-1.27031E+000, -4.94946E-005
-1.27528E+000, -4.88909E-005
-1.28027E+000, -4.86909E-005
-1.28530E+000, -4.87559E-005
-1.29028E+000, -4.90201E-005
-1.29529E+000, -4.85508E-005
-1.30027E+000, -4.85201E-005
-1.30526E+000, -4.81894E-005
-1.31030E+000, -4.83616E-005
-1.31529E+000, -4.78789E-005
-1.32030E+000, -4.87393E-005
-1.32528E+000, -4.79254E-005
-1.33028E+000, -4.80693E-005
-1.33531E+000, -4.78251E-005
-1.34032E+000, -4.82081E-005
-1.34532E+000, -4.83583E-005
-1.35030E+000, -4.86202E-005
-1.35529E+000, -4.88899E-005
-1.36031E+000, -4.92281E-005
-1.36531E+000, -4.95092E-005
-1.37030E+000, -5.05546E-005
-1.37531E+000, -5.06325E-005
-1.38030E+000, -5.10250E-005
-1.38533E+000, -5.14614E-005
-1.39031E+000, -5.17794E-005
-1.39530E+000, -5.22180E-005
-1.40031E+000, -5.22393E-005
-1.40530E+000, -5.30434E-005
-1.41031E+000, -5.36946E-005
-1.41531E+000, -5.37365E-005
-1.42032E+000, -5.46092E-005
-1.42531E+000, -5.50308E-005
-1.43030E+000, -5.58933E-005
-1.43532E+000, -5.68479E-005
-1.44030E+000, -5.84924E-005
-1.44529E+000, -5.95870E-005
-1.45029E+000, -6.03193E-005
-1.45527E+000, -6.18386E-005
-1.46026E+000, -6.28446E-005
-1.46529E+000, -6.40609E-005
-1.47027E+000, -6.54938E-005
-1.47529E+000, -6.71657E-005
-1.48028E+000, -6.87966E-005
-1.48527E+000, -7.07658E-005
-1.49029E+000, -7.19521E-005
-1.49529E+000, -7.33151E-005
-1.50035E+000, -7.47073E-005
-1.50534E+000, -7.62332E-005
-1.51032E+000, -7.83487E-005
-1.51535E+000, -7.99270E-005
-1.52033E+000, -8.14146E-005
-1.52535E+000, -8.33169E-005
-1.53035E+000, -8.53576E-005
-1.53534E+000, -8.67291E-005
-1.54036E+000, -8.87885E-005
-1.54537E+000, -9.09204E-005
-1.55037E+000, -9.23798E-005
-1.55535E+000, -9.39626E-005
-1.56035E+000, -9.57720E-005
-1.56538E+000, -9.75915E-005
-1.57035E+000, -9.95664E-005
-1.57536E+000, -1.01492E-004
-1.58037E+000, -1.03552E-004
-1.58536E+000, -1.05768E-004
-1.59040E+000, -1.07936E-004
-1.59538E+000, -1.10055E-004
-1.60036E+000, -1.12760E-004
-1.60537E+000, -1.14167E-004
-1.61035E+000, -1.16385E-004
-1.61535E+000, -1.18056E-004
-1.62036E+000, -1.20527E-004
-1.62535E+000, -1.23267E-004
-1.63036E+000, -1.25433E-004
-1.63535E+000, -1.27773E-004
-1.64035E+000, -1.30066E-004
-1.64533E+000, -1.32703E-004
-1.65033E+000, -1.35102E-004
-1.65534E+000, -1.36659E-004
-1.66034E+000, -1.39302E-004
-1.66537E+000, -1.41902E-004
-1.67033E+000, -1.44061E-004
-1.67532E+000, -1.46930E-004
-1.68033E+000, -1.49036E-004
-1.68533E+000, -1.51658E-004
-1.69032E+000, -1.53969E-004
-1.69534E+000, -1.56088E-004
-1.70034E+000, -1.58814E-004
-1.70536E+000, -1.61879E-004
-1.71035E+000, -1.65080E-004
-1.71533E+000, -1.67610E-004
-1.72034E+000, -1.69196E-004
-1.72532E+000, -1.71974E-004
-1.73035E+000, -1.74597E-004
-1.73535E+000, -1.76756E-004
-1.74035E+000, -1.79342E-004
-1.74537E+000, -1.81568E-004
-1.75035E+000, -1.83837E-004
-1.75537E+000, -1.86665E-004
-1.76035E+000, -1.89632E-004
-1.76534E+000, -1.91755E-004
-1.77035E+000, -1.94047E-004
-1.77535E+000, -1.95734E-004
-1.78034E+000, -1.98997E-004
-1.78534E+000, -2.01414E-004
-1.79035E+000, -2.02900E-004
-1.79536E+000, -2.05439E-004
-1.80036E+000, -2.08152E-004
-1.80534E+000, -2.10339E-004
-1.81036E+000, -2.13460E-004
-1.81534E+000, -2.15874E-004
-1.82034E+000, -2.17575E-004
-1.82535E+000, -2.19838E-004
-1.83034E+000, -2.21599E-004
-1.83535E+000, -2.24484E-004
-1.84034E+000, -2.26655E-004
-1.84535E+000, -2.29044E-004
-1.85034E+000, -2.31518E-004
-1.85532E+000, -2.33712E-004
-1.86039E+000, -2.35695E-004
-1.86537E+000, -2.36863E-004
-1.87039E+000, -2.39070E-004
-1.87539E+000, -2.41375E-004
-1.88038E+000, -2.43773E-004
-1.88538E+000, -2.46907E-004
-1.89037E+000, -2.49409E-004
-1.89536E+000, -2.51985E-004
-1.90040E+000, -2.53838E-004
-1.90537E+000, -2.56031E-004
-1.91039E+000, -2.58608E-004
-1.91539E+000, -2.60445E-004
-1.92038E+000, -2.62243E-004
-1.92539E+000, -2.65354E-004
-1.93038E+000, -2.68099E-004
-1.93540E+000, -2.70447E-004
-1.94038E+000, -2.73174E-004
-1.94538E+000, -2.75096E-004
-1.95039E+000, -2.77688E-004
-1.95538E+000, -2.80580E-004
-1.96039E+000, -2.84098E-004
-1.96540E+000, -2.87352E-004
-1.97037E+000, -2.89554E-004
-1.97540E+000, -2.92863E-004
-1.98042E+000, -2.96288E-004
-1.98538E+000, -2.98522E-004
-1.99039E+000, -3.01360E-004
-1.99540E+000, -3.04186E-004
-2.00040E+000, -3.07203E-004
-1.99543E+000, -2.98936E-004
-1.99044E+000, -2.91038E-004
-1.98544E+000, -2.83916E-004
-1.98044E+000, -2.77739E-004
-1.97545E+000, -2.72575E-004
-1.97042E+000, -2.68016E-004
-1.96545E+000, -2.62797E-004
-1.96045E+000, -2.57506E-004
-1.95544E+000, -2.51733E-004
-1.95044E+000, -2.47227E-004
-1.94542E+000, -2.42618E-004
-1.94042E+000, -2.37648E-004
-1.93543E+000, -2.33542E-004
-1.93043E+000, -2.29680E-004
-1.92543E+000, -2.26436E-004
-1.92041E+000, -2.22442E-004
-1.91543E+000, -2.18379E-004
-1.91045E+000, -2.14999E-004
-1.90541E+000, -2.10922E-004
-1.90044E+000, -2.07581E-004
-1.89543E+000, -2.04551E-004
-1.89043E+000, -2.01146E-004
-1.88543E+000, -1.96947E-004
-1.88042E+000, -1.93074E-004
-1.87542E+000, -1.89941E-004
-1.87042E+000, -1.86685E-004
-1.86541E+000, -1.82734E-004
-1.86041E+000, -1.79337E-004
-1.85537E+000, -1.75808E-004
-1.85038E+000, -1.72629E-004
-1.84538E+000, -1.69082E-004
-1.84038E+000, -1.66433E-004
-1.83540E+000, -1.63149E-004
-1.83038E+000, -1.60265E-004
-1.82537E+000, -1.57523E-004
-1.82038E+000, -1.53857E-004
-1.81537E+000, -1.50871E-004
-1.81040E+000, -1.47851E-004
-1.80540E+000, -1.44657E-004
-1.80042E+000, -1.41347E-004
-1.79542E+000, -1.38165E-004
-1.79040E+000, -1.34820E-004
-1.78540E+000, -1.31667E-004
-1.78039E+000, -1.29052E-004
-1.77539E+000, -1.26046E-004
-1.77040E+000, -1.23106E-004
-1.76538E+000, -1.20304E-004
-1.76039E+000, -1.17792E-004
-1.75541E+000, -1.14955E-004
-1.75040E+000, -1.11880E-004
-1.74542E+000, -1.09400E-004
-1.74039E+000, -1.06489E-004
-1.73538E+000, -1.03790E-004
-1.73039E+000, -1.00945E-004
-1.72539E+000, -9.81445E-005
-1.72037E+000, -9.54960E-005
-1.71535E+000, -9.27306E-005
-1.71038E+000, -9.00728E-005
-1.70537E+000, -8.78694E-005
-1.70036E+000, -8.55614E-005
-1.69540E+000, -8.35565E-005
-1.69036E+000, -8.13451E-005
-1.68538E+000, -7.92324E-005
-1.68039E+000, -7.76732E-005
-1.67537E+000, -7.55344E-005
-1.67037E+000, -7.34349E-005
-1.66540E+000, -7.13766E-005
-1.66037E+000, -6.95757E-005
-1.65538E+000, -6.79606E-005
-1.65038E+000, -6.60719E-005
-1.64537E+000, -6.50226E-005
-1.64041E+000, -6.35414E-005
-1.63540E+000, -6.21111E-005
-1.63041E+000, -6.09646E-005
-1.62540E+000, -5.95088E-005
-1.62041E+000, -5.81358E-005
-1.61540E+000, -5.70698E-005
-1.61038E+000, -5.59675E-005
-1.60541E+000, -5.48442E-005
-1.60039E+000, -5.35274E-005
-1.59541E+000, -5.22962E-005
-1.59042E+000, -5.15736E-005
-1.58539E+000, -5.03174E-005
-1.58039E+000, -4.95548E-005
-1.57539E+000, -4.85581E-005
-1.57040E+000, -4.79911E-005
-1.56541E+000, -4.73037E-005
-1.56040E+000, -4.64991E-005
-1.55540E+000, -4.57105E-005
-1.55041E+000, -4.49833E-005
-1.54540E+000, -4.41656E-005
-1.54040E+000, -4.37113E-005
-1.53539E+000, -4.32618E-005
-1.53039E+000, -4.27736E-005
-1.52540E+000, -4.23203E-005
-1.52038E+000, -4.18625E-005
-1.51541E+000, -4.15699E-005
-1.51038E+000, -4.10425E-005
-1.50540E+000, -4.09920E-005
-1.50039E+000, -4.08673E-005
-1.49534E+000, -4.06103E-005
-1.49034E+000, -4.02412E-005
-1.48531E+000, -4.02467E-005
-1.48032E+000, -3.99642E-005
-1.47534E+000, -4.00438E-005
-1.47032E+000, -3.99397E-005
-1.46534E+000, -4.00817E-005
-1.46032E+000, -3.99467E-005
-1.45532E+000, -4.02494E-005
-1.45034E+000, -4.03128E-005
-1.44534E+000, -4.09182E-005
-1.44034E+000, -4.08538E-005
-1.43535E+000, -4.09451E-005
-1.43037E+000, -4.16260E-005
-1.42538E+000, -4.15636E-005
-1.42036E+000, -4.16037E-005
-1.41536E+000, -4.23017E-005
-1.41036E+000, -4.25209E-005
-1.40535E+000, -4.30029E-005
-1.40037E+000, -4.30193E-005
-1.39535E+000, -4.34565E-005
-1.39035E+000, -4.34592E-005
-1.38538E+000, -4.42858E-005
-1.38033E+000, -4.45029E-005
-1.37535E+000, -4.44822E-005
-1.37033E+000, -4.42573E-005
-1.36534E+000, -4.47106E-005
-1.36035E+000, -4.47087E-005
-1.35534E+000, -4.53024E-005
-1.35035E+000, -4.51751E-005
-1.34536E+000, -4.48580E-005
-1.34036E+000, -4.48610E-005
-1.33535E+000, -4.47775E-005
-1.33035E+000, -4.46163E-005
-1.32535E+000, -4.47741E-005
-1.32035E+000, -4.48317E-005
-1.31534E+000, -4.44692E-005
-1.31035E+000, -4.42452E-005
-1.30533E+000, -4.42947E-005
-1.30033E+000, -4.42724E-005
-1.29536E+000, -4.32058E-005
-1.29035E+000, -4.32214E-005
-1.28535E+000, -4.33367E-005
-1.28033E+000, -4.31401E-005
-1.27532E+000, -4.30510E-005
-1.27033E+000, -4.29578E-005
-1.26533E+000, -4.26757E-005
-1.26034E+000, -4.22694E-005
-1.25532E+000, -4.21085E-005
-1.25033E+000, -4.13560E-005
-1.24532E+000, -4.14569E-005
-1.24032E+000, -4.16310E-005
-1.23533E+000, -4.15318E-005
-1.23033E+000, -4.16445E-005
-1.22533E+000, -4.03297E-005
-1.22034E+000, -4.07382E-005
-1.21532E+000, -3.99408E-005
-1.21031E+000, -4.01605E-005
-1.20534E+000, -3.95833E-005
-1.20033E+000, -3.91945E-005
-1.19535E+000, -3.97367E-005
-1.19034E+000, -3.89397E-005
-1.18536E+000, -3.80745E-005
-1.18038E+000, -3.77298E-005
-1.17533E+000, -3.72385E-005
-1.17035E+000, -3.77685E-005
-1.16533E+000, -3.66488E-005
-1.16034E+000, -3.56678E-005
-1.15534E+000, -3.54897E-005
-1.15032E+000, -3.58519E-005
-1.14532E+000, -3.48350E-005
-1.14034E+000, -3.41830E-005
-1.13528E+000, -3.39584E-005
-1.13028E+000, -3.34347E-005
-1.12526E+000, -3.30146E-005
-1.12028E+000, -3.33916E-005
-1.11528E+000, -3.25410E-005
-1.11027E+000, -3.24044E-005
-1.10528E+000, -3.23841E-005
-1.10026E+000, -3.19326E-005
-1.09528E+000, -3.13176E-005
-1.09028E+000, -3.14706E-005
-1.08527E+000, -3.20117E-005
-1.08029E+000, -3.19568E-005
-1.07525E+000, -3.16037E-005
-1.07027E+000, -3.13776E-005
-1.06527E+000, -3.20409E-005
-1.06027E+000, -3.16057E-005
-1.05526E+000, -3.20634E-005
-1.05025E+000, -3.18848E-005
-1.04527E+000, -3.14765E-005
-1.04027E+000, -3.16680E-005
-1.03527E+000, -3.12325E-005
-1.03027E+000, -3.13365E-005
-1.02526E+000, -3.14898E-005
-1.02026E+000, -3.17036E-005
-1.01528E+000, -3.22842E-005
-1.01026E+000, -3.22585E-005
-1.00527E+000, -3.23667E-005
-1.00028E+000, -3.19928E-005
-9.95267E-001, -3.17986E-005
-9.90289E-001, -3.27088E-005
-9.85284E-001, -3.29090E-005
-9.80288E-001, -3.23726E-005
-9.75295E-001, -3.16046E-005
-9.70264E-001, -3.18815E-005
-9.65292E-001, -3.21796E-005
-9.60279E-001, -3.20036E-005
-9.55299E-001, -3.22302E-005
-9.50298E-001, -3.19525E-005
-9.45280E-001, -3.27677E-005
-9.40294E-001, -3.20790E-005
-9.35301E-001, -3.25471E-005
-9.30279E-001, -3.25574E-005
-9.25276E-001, -3.23272E-005
-9.20253E-001, -3.24882E-005
-9.15262E-001, -3.26576E-005
-9.10265E-001, -3.24610E-005
-9.05267E-001, -3.26811E-005
-9.00267E-001, -3.25103E-005
-8.95255E-001, -3.29469E-005
-8.90266E-001, -3.27737E-005
-8.85272E-001, -3.21764E-005
-8.80267E-001, -3.23838E-005
-8.75274E-001, -3.24633E-005
-8.70234E-001, -3.23983E-005
-8.65252E-001, -3.18036E-005
-8.60257E-001, -3.19334E-005
-8.55243E-001, -3.20621E-005
-8.50245E-001, -3.16906E-005
-8.45240E-001, -3.08757E-005
-8.40244E-001, -3.09716E-005
-8.35256E-001, -3.06749E-005
-8.30246E-001, -3.06606E-005
-8.25253E-001, -3.05835E-005
-8.20248E-001, -2.97528E-005
-8.15244E-001, -2.93764E-005
-8.10268E-001, -2.93804E-005
-8.05242E-001, -2.88844E-005
-8.00255E-001, -2.90819E-005
##END=$$ End of the data block
