##TITLE=Spectrum
##JCAMP-DX=5.00 $$ chemotion-converter-app (1.6.2)
##DATA TYPE=CYCLIC VOLTAMMETRY
##DATA CLASS=XYPOINTS
##ORIGIN=
##OWNER=
##XUNITS=Voltage in V
##YUNITS=Current in A
##DATE=27.4.2022
##SCAN_RATE=0.0999998
##STEP_SIZE=0.005
##CYCLES=10
##SOFTWARE_VERSION=7.8.6
##SOFTWARE=Framework
##TIME=16:28:33
##VOLTAGE_START=-8.00000E-001
##VOLTAGE_LIMIT_ONE=-2.00000E+000
##VOLTAGE_LIMIT_TWO=-8.00000E-001
##VOLTAGE_LIMIT_END=-8.00000E-001
##SERIAL=IFC1010-28176
##INSTRUMENT=Potentiostat
##FIRSTX=-8.00235E-001
##LASTX=-8.00268E-001
##MINX=-2.00041
##MAXX=2.2250738585072014e-308
##MINY=-0.000370383
##MAXY=2.2250738585072014e-308
##NPOINTS=481
##FIRSTY=-3.70383E-004
##XUNITS=Voltage in V
##YUNITS=Current in A
##XYPOINTS=(XY..XY)
-8.00235E-001, -3.70383E-004
-8.05198E-001, -3.59941E-004
-8.10220E-001, -3.49106E-004
-8.15207E-001, -3.38837E-004
-8.20217E-001, -3.29150E-004
-8.25216E-001, -3.19688E-004
-8.30215E-001, -3.10274E-004
-8.35216E-001, -3.01556E-004
-8.40214E-001, -2.93322E-004
-8.45207E-001, -2.85621E-004
-8.50209E-001, -2.77990E-004
-8.55202E-001, -2.70752E-004
-8.60208E-001, -2.63750E-004
-8.65206E-001, -2.57344E-004
-8.70189E-001, -2.51153E-004
-8.75227E-001, -2.44730E-004
-8.80217E-001, -2.38568E-004
-8.85208E-001, -2.32890E-004
-8.90209E-001, -2.27412E-004
-8.95197E-001, -2.22123E-004
-9.00219E-001, -2.17154E-004
-9.05222E-001, -2.12051E-004
-9.10221E-001, -2.06942E-004
-9.15220E-001, -2.02475E-004
-9.20218E-001, -1.98234E-004
-9.25230E-001, -1.93573E-004
-9.30230E-001, -1.89606E-004
-9.35249E-001, -1.85680E-004
-9.40238E-001, -1.81696E-004
-9.45216E-001, -1.78251E-004
-9.50222E-001, -1.74708E-004
-9.55227E-001, -1.71172E-004
-9.60213E-001, -1.67877E-004
-9.65239E-001, -1.64759E-004
-9.70223E-001, -1.61807E-004
-9.75265E-001, -1.59094E-004
-9.80265E-001, -1.56304E-004
-9.85237E-001, -1.53222E-004
-9.90240E-001, -1.50355E-004
-9.95209E-001, -1.48037E-004
-1.00022E+000, -1.45906E-004
-1.00522E+000, -1.43631E-004
-1.01022E+000, -1.41108E-004
-1.01525E+000, -1.39029E-004
-1.02023E+000, -1.36438E-004
-1.02523E+000, -1.34561E-004
-1.03021E+000, -1.32836E-004
-1.03522E+000, -1.30673E-004
-1.04023E+000, -1.28819E-004
-1.04522E+000, -1.26835E-004
-1.05021E+000, -1.25226E-004
-1.05522E+000, -1.23358E-004
-1.06022E+000, -1.21666E-004
-1.06521E+000, -1.20017E-004
-1.07022E+000, -1.18355E-004
-1.07521E+000, -1.16853E-004
-1.08024E+000, -1.15343E-004
-1.08523E+000, -1.14025E-004
-1.09023E+000, -1.12572E-004
-1.09522E+000, -1.10905E-004
-1.10021E+000, -1.09636E-004
-1.10522E+000, -1.08402E-004
-1.11022E+000, -1.06970E-004
-1.11523E+000, -1.05762E-004
-1.12022E+000, -1.04477E-004
-1.12521E+000, -1.04164E-004
-1.13023E+000, -1.03473E-004
-1.13523E+000, -1.02630E-004
-1.14031E+000, -1.02093E-004
-1.14529E+000, -1.01968E-004
-1.15027E+000, -1.01374E-004
-1.15529E+000, -1.01015E-004
-1.16031E+000, -1.00536E-004
-1.16528E+000, -1.00370E-004
-1.17028E+000, -1.00360E-004
-1.17527E+000, -1.00199E-004
-1.18031E+000, -1.00506E-004
-1.18530E+000, -1.00046E-004
-1.19029E+000, -9.83750E-005
-1.19530E+000, -9.70058E-005
-1.20028E+000, -9.45369E-005
-1.20529E+000, -9.18060E-005
-1.21028E+000, -8.99146E-005
-1.21528E+000, -8.84919E-005
-1.22028E+000, -8.72590E-005
-1.22528E+000, -8.60598E-005
-1.23028E+000, -8.46347E-005
-1.23530E+000, -8.29230E-005
-1.24029E+000, -8.15826E-005
-1.24529E+000, -8.07233E-005
-1.25027E+000, -7.97224E-005
-1.25525E+000, -7.81195E-005
-1.26028E+000, -7.70189E-005
-1.26526E+000, -7.59041E-005
-1.27029E+000, -7.49102E-005
-1.27528E+000, -7.35751E-005
-1.28027E+000, -7.22219E-005
-1.28530E+000, -7.23998E-005
-1.29028E+000, -7.27083E-005
-1.29530E+000, -7.17990E-005
-1.30028E+000, -7.19572E-005
-1.30528E+000, -7.24643E-005
-1.31030E+000, -7.21034E-005
-1.31529E+000, -7.22214E-005
-1.32028E+000, -7.19236E-005
-1.32529E+000, -7.25810E-005
-1.33029E+000, -7.33155E-005
-1.33531E+000, -7.30427E-005
-1.34030E+000, -7.40404E-005
-1.34531E+000, -7.39395E-005
-1.35030E+000, -7.47722E-005
-1.35530E+000, -7.55407E-005
-1.36031E+000, -7.56395E-005
-1.36529E+000, -7.64619E-005
-1.37030E+000, -7.76824E-005
-1.37530E+000, -7.86463E-005
-1.38030E+000, -8.02184E-005
-1.38533E+000, -8.17695E-005
-1.39032E+000, -8.31478E-005
-1.39531E+000, -8.44864E-005
-1.40031E+000, -8.56204E-005
-1.40530E+000, -8.69965E-005
-1.41030E+000, -8.85446E-005
-1.41531E+000, -8.99275E-005
-1.42031E+000, -9.12942E-005
-1.42531E+000, -9.23540E-005
-1.43030E+000, -9.40510E-005
-1.43531E+000, -9.55717E-005
-1.44028E+000, -9.67329E-005
-1.44528E+000, -9.80444E-005
-1.45028E+000, -9.91839E-005
-1.45527E+000, -9.97146E-005
-1.46026E+000, -1.00138E-004
-1.46529E+000, -1.00801E-004
-1.47028E+000, -1.02105E-004
-1.47529E+000, -1.03741E-004
-1.48028E+000, -1.04304E-004
-1.48527E+000, -1.05566E-004
-1.49029E+000, -1.07226E-004
-1.49529E+000, -1.08027E-004
-1.50036E+000, -1.08607E-004
-1.50535E+000, -1.09009E-004
-1.51033E+000, -1.10166E-004
-1.51537E+000, -1.11193E-004
-1.52035E+000, -1.11700E-004
-1.52536E+000, -1.12525E-004
-1.53035E+000, -1.13724E-004
-1.53533E+000, -1.14796E-004
-1.54035E+000, -1.16033E-004
-1.54535E+000, -1.17587E-004
-1.55036E+000, -1.18531E-004
-1.55536E+000, -1.20047E-004
-1.56035E+000, -1.21041E-004
-1.56536E+000, -1.22523E-004
-1.57034E+000, -1.24343E-004
-1.57534E+000, -1.25790E-004
-1.58035E+000, -1.26704E-004
-1.58534E+000, -1.28382E-004
-1.59038E+000, -1.29856E-004
-1.59538E+000, -1.30615E-004
-1.60034E+000, -1.32017E-004
-1.60536E+000, -1.33007E-004
-1.61033E+000, -1.34796E-004
-1.61535E+000, -1.36501E-004
-1.62035E+000, -1.37995E-004
-1.62535E+000, -1.39514E-004
-1.63036E+000, -1.41119E-004
-1.63535E+000, -1.42545E-004
-1.64035E+000, -1.44058E-004
-1.64532E+000, -1.45346E-004
-1.65031E+000, -1.47002E-004
-1.65532E+000, -1.49093E-004
-1.66031E+000, -1.51289E-004
-1.66533E+000, -1.53257E-004
-1.67033E+000, -1.54490E-004
-1.67532E+000, -1.55373E-004
-1.68034E+000, -1.56586E-004
-1.68533E+000, -1.57987E-004
-1.69031E+000, -1.60205E-004
-1.69536E+000, -1.61592E-004
-1.70034E+000, -1.63153E-004
-1.70535E+000, -1.65178E-004
-1.71035E+000, -1.67019E-004
-1.71533E+000, -1.68596E-004
-1.72033E+000, -1.69966E-004
-1.72533E+000, -1.71357E-004
-1.73034E+000, -1.72749E-004
-1.73532E+000, -1.74534E-004
-1.74032E+000, -1.77055E-004
-1.74534E+000, -1.78524E-004
-1.75033E+000, -1.79789E-004
-1.75535E+000, -1.81443E-004
-1.76033E+000, -1.83448E-004
-1.76533E+000, -1.85255E-004
-1.77034E+000, -1.87042E-004
-1.77534E+000, -1.88730E-004
-1.78032E+000, -1.91569E-004
-1.78534E+000, -1.93342E-004
-1.79035E+000, -1.95527E-004
-1.79537E+000, -1.97467E-004
-1.80036E+000, -1.99680E-004
-1.80535E+000, -2.02312E-004
-1.81036E+000, -2.04746E-004
-1.81533E+000, -2.06443E-004
-1.82034E+000, -2.08384E-004
-1.82534E+000, -2.11062E-004
-1.83034E+000, -2.14047E-004
-1.83534E+000, -2.15528E-004
-1.84033E+000, -2.17371E-004
-1.84535E+000, -2.20302E-004
-1.85034E+000, -2.22612E-004
-1.85533E+000, -2.25099E-004
-1.86037E+000, -2.27723E-004
-1.86537E+000, -2.31012E-004
-1.87039E+000, -2.33141E-004
-1.87538E+000, -2.35133E-004
-1.88037E+000, -2.37721E-004
-1.88537E+000, -2.39783E-004
-1.89037E+000, -2.42231E-004
-1.89537E+000, -2.44945E-004
-1.90039E+000, -2.47484E-004
-1.90536E+000, -2.50247E-004
-1.91039E+000, -2.53441E-004
-1.91538E+000, -2.56036E-004
-1.92037E+000, -2.59084E-004
-1.92538E+000, -2.61229E-004
-1.93039E+000, -2.63410E-004
-1.93540E+000, -2.65664E-004
-1.94038E+000, -2.68780E-004
-1.94538E+000, -2.72002E-004
-1.95039E+000, -2.74619E-004
-1.95538E+000, -2.77380E-004
-1.96040E+000, -2.80159E-004
-1.96541E+000, -2.82988E-004
-1.97038E+000, -2.85948E-004
-1.97541E+000, -2.89096E-004
-1.98042E+000, -2.92178E-004
-1.98540E+000, -2.95546E-004
-1.99041E+000, -2.97454E-004
-1.99540E+000, -2.99944E-004
-2.00041E+000, -3.02291E-004
-1.99544E+000, -2.92961E-004
-1.99045E+000, -2.86058E-004
-1.98544E+000, -2.79562E-004
-1.98045E+000, -2.74011E-004
-1.97546E+000, -2.68626E-004
-1.97043E+000, -2.62895E-004
-1.96545E+000, -2.56719E-004
-1.96045E+000, -2.52545E-004
-1.95542E+000, -2.47703E-004
-1.95043E+000, -2.42454E-004
-1.94541E+000, -2.37717E-004
-1.94043E+000, -2.33078E-004
-1.93545E+000, -2.28463E-004
-1.93044E+000, -2.24220E-004
-1.92544E+000, -2.20394E-004
-1.92042E+000, -2.16136E-004
-1.91543E+000, -2.12022E-004
-1.91044E+000, -2.08662E-004
-1.90541E+000, -2.05355E-004
-1.90042E+000, -2.00911E-004
-1.89541E+000, -1.98713E-004
-1.89043E+000, -1.94747E-004
-1.88543E+000, -1.90803E-004
-1.88042E+000, -1.86979E-004
-1.87543E+000, -1.84060E-004
-1.87043E+000, -1.80438E-004
-1.86542E+000, -1.76408E-004
-1.86043E+000, -1.73392E-004
-1.85537E+000, -1.70425E-004
-1.85039E+000, -1.67862E-004
-1.84540E+000, -1.64954E-004
-1.84038E+000, -1.61623E-004
-1.83540E+000, -1.58621E-004
-1.83041E+000, -1.55538E-004
-1.82539E+000, -1.52281E-004
-1.82040E+000, -1.49137E-004
-1.81538E+000, -1.46072E-004
-1.81040E+000, -1.43438E-004
-1.80539E+000, -1.40495E-004
-1.80042E+000, -1.37409E-004
-1.79542E+000, -1.34396E-004
-1.79040E+000, -1.31775E-004
-1.78540E+000, -1.28814E-004
-1.78038E+000, -1.26109E-004
-1.77540E+000, -1.23660E-004
-1.77041E+000, -1.20998E-004
-1.76539E+000, -1.18634E-004
-1.76039E+000, -1.15994E-004
-1.75541E+000, -1.13820E-004
-1.75039E+000, -1.11295E-004
-1.74541E+000, -1.09115E-004
-1.74037E+000, -1.06802E-004
-1.73539E+000, -1.04669E-004
-1.73039E+000, -1.03044E-004
-1.72538E+000, -1.00827E-004
-1.72037E+000, -9.86243E-005
-1.71535E+000, -9.66984E-005
-1.71039E+000, -9.47537E-005
-1.70538E+000, -9.27853E-005
-1.70038E+000, -9.11405E-005
-1.69540E+000, -8.89284E-005
-1.69034E+000, -8.76574E-005
-1.68536E+000, -8.58607E-005
-1.68036E+000, -8.44153E-005
-1.67536E+000, -8.23036E-005
-1.67037E+000, -8.05924E-005
-1.66538E+000, -7.88831E-005
-1.66035E+000, -7.79887E-005
-1.65537E+000, -7.69964E-005
-1.65037E+000, -7.53884E-005
-1.64537E+000, -7.37141E-005
-1.64041E+000, -7.24114E-005
-1.63541E+000, -7.10215E-005
-1.63042E+000, -6.93899E-005
-1.62542E+000, -6.80326E-005
-1.62041E+000, -6.67529E-005
-1.61540E+000, -6.53553E-005
-1.61039E+000, -6.44816E-005
-1.60542E+000, -6.34686E-005
-1.60041E+000, -6.26233E-005
-1.59542E+000, -6.14143E-005
-1.59042E+000, -6.04320E-005
-1.58540E+000, -5.92253E-005
-1.58040E+000, -5.83056E-005
-1.57540E+000, -5.72445E-005
-1.57041E+000, -5.63149E-005
-1.56542E+000, -5.57511E-005
-1.56039E+000, -5.45921E-005
-1.55542E+000, -5.41006E-005
-1.55042E+000, -5.29242E-005
-1.54541E+000, -5.21326E-005
-1.54040E+000, -5.15204E-005
-1.53538E+000, -5.09240E-005
-1.53039E+000, -5.02017E-005
-1.52542E+000, -4.97040E-005
-1.52039E+000, -4.88609E-005
-1.51542E+000, -4.88479E-005
-1.51039E+000, -4.87931E-005
-1.50540E+000, -4.80392E-005
-1.50040E+000, -4.77758E-005
-1.49534E+000, -4.76128E-005
-1.49034E+000, -4.78929E-005
-1.48531E+000, -4.73886E-005
-1.48032E+000, -4.72340E-005
-1.47535E+000, -4.70514E-005
-1.47033E+000, -4.70186E-005
-1.46536E+000, -4.73370E-005
-1.46033E+000, -4.77184E-005
-1.45534E+000, -4.75387E-005
-1.45034E+000, -4.77946E-005
-1.44534E+000, -4.81463E-005
-1.44034E+000, -4.84033E-005
-1.43536E+000, -4.86602E-005
-1.43035E+000, -4.87109E-005
-1.42537E+000, -4.88592E-005
-1.42036E+000, -4.87105E-005
-1.41535E+000, -4.86497E-005
-1.41036E+000, -4.86524E-005
-1.40534E+000, -4.80284E-005
-1.40036E+000, -4.80391E-005
-1.39534E+000, -4.76661E-005
-1.39035E+000, -4.73300E-005
-1.38537E+000, -4.65952E-005
-1.38033E+000, -4.60720E-005
-1.37534E+000, -4.45457E-005
-1.37034E+000, -4.44478E-005
-1.36534E+000, -4.35905E-005
-1.36036E+000, -4.29030E-005
-1.35535E+000, -4.20087E-005
-1.35034E+000, -4.11333E-005
-1.34536E+000, -4.00696E-005
-1.34035E+000, -4.11012E-005
-1.33534E+000, -3.95958E-005
-1.33033E+000, -3.94397E-005
-1.32535E+000, -3.79365E-005
-1.32034E+000, -3.83913E-005
-1.31533E+000, -3.80227E-005
-1.31034E+000, -3.79275E-005
-1.30532E+000, -3.75414E-005
-1.30033E+000, -3.81238E-005
-1.29535E+000, -3.72280E-005
-1.29034E+000, -3.80026E-005
-1.28535E+000, -3.82838E-005
-1.28031E+000, -3.72558E-005
-1.27533E+000, -3.73712E-005
-1.27034E+000, -3.74119E-005
-1.26533E+000, -3.77681E-005
-1.26034E+000, -3.80639E-005
-1.25532E+000, -3.74339E-005
-1.25033E+000, -3.72065E-005
-1.24534E+000, -3.72901E-005
-1.24034E+000, -3.71814E-005
-1.23534E+000, -3.75558E-005
-1.23033E+000, -3.76608E-005
-1.22531E+000, -3.72334E-005
-1.22033E+000, -3.68254E-005
-1.21532E+000, -3.71228E-005
-1.21033E+000, -3.71049E-005
-1.20534E+000, -3.72214E-005
-1.20033E+000, -3.70004E-005
-1.19535E+000, -3.65404E-005
-1.19033E+000, -3.65774E-005
-1.18535E+000, -3.55665E-005
-1.18036E+000, -3.52252E-005
-1.17532E+000, -3.55415E-005
-1.17033E+000, -3.59004E-005
-1.16532E+000, -3.49760E-005
-1.16035E+000, -3.51526E-005
-1.15535E+000, -3.48186E-005
-1.15032E+000, -3.49339E-005
-1.14533E+000, -3.36051E-005
-1.14036E+000, -3.38222E-005
-1.13527E+000, -3.34840E-005
-1.13027E+000, -3.40771E-005
-1.12525E+000, -3.36395E-005
-1.12028E+000, -3.16896E-005
-1.11529E+000, -3.17516E-005
-1.11029E+000, -3.18082E-005
-1.10529E+000, -3.22067E-005
-1.10026E+000, -3.20730E-005
-1.09526E+000, -3.08556E-005
-1.09027E+000, -3.05328E-005
-1.08529E+000, -3.04312E-005
-1.08029E+000, -3.07947E-005
-1.07527E+000, -2.99440E-005
-1.07026E+000, -3.04109E-005
-1.06526E+000, -2.89581E-005
-1.06026E+000, -2.89512E-005
-1.05526E+000, -3.04087E-005
-1.05024E+000, -2.84479E-005
-1.04527E+000, -2.87925E-005
-1.04028E+000, -2.82965E-005
-1.03527E+000, -2.78567E-005
-1.03028E+000, -2.87476E-005
-1.02527E+000, -2.85416E-005
-1.02028E+000, -2.87041E-005
-1.01530E+000, -2.84778E-005
-1.01027E+000, -2.84685E-005
-1.00528E+000, -2.84232E-005
-1.00028E+000, -2.87404E-005
-9.95268E-001, -2.68206E-005
-9.90301E-001, -2.71795E-005
-9.85293E-001, -2.74001E-005
-9.80304E-001, -2.74938E-005
-9.75311E-001, -2.76667E-005
-9.70279E-001, -2.73207E-005
-9.65287E-001, -2.66638E-005
-9.60265E-001, -2.73666E-005
-9.55286E-001, -2.68313E-005
-9.50293E-001, -2.67161E-005
-9.45275E-001, -2.68386E-005
-9.40284E-001, -2.73732E-005
-9.35301E-001, -2.77895E-005
-9.30282E-001, -2.72781E-005
-9.25274E-001, -2.70247E-005
-9.20249E-001, -2.71414E-005
-9.15261E-001, -2.76291E-005
-9.10268E-001, -2.75055E-005
-9.05265E-001, -2.70547E-005
-9.00272E-001, -2.75453E-005
-8.95250E-001, -2.70398E-005
-8.90264E-001, -2.70776E-005
-8.85272E-001, -2.74518E-005
-8.80274E-001, -2.70884E-005
-8.75286E-001, -2.73656E-005
-8.70244E-001, -2.68781E-005
-8.65274E-001, -2.70014E-005
-8.60271E-001, -2.72391E-005
-8.55250E-001, -2.72056E-005
-8.50262E-001, -2.72512E-005
-8.45236E-001, -2.71134E-005
-8.40247E-001, -2.72841E-005
-8.35261E-001, -2.75838E-005
-8.30254E-001, -2.69444E-005
-8.25269E-001, -2.68105E-005
-8.20271E-001, -2.66367E-005
-8.15254E-001, -2.62400E-005
-8.10276E-001, -2.66538E-005
-8.05253E-001, -2.65826E-005
-8.00268E-001, -2.64123E-005
##END=$$ End of the data block
