##TITLE=Spectrum
##JCAMP-DX=5.00 $$ chemotion-converter-app (1.7.0)
##DATA TYPE=CYCLIC VOLTAMMETRY
##DATA CLASS=XYPOINTS
##ORIGIN=
##OWNER=
##XUNITS=Voltage in V
##YUNITS=Current in A
##DATE=27.4.2022
##SCAN_RATE=0.0999998
##STEP_SIZE=0.005
##CYCLES=10
##SOFTWARE_VERSION=7.8.6
##SOFTWARE=Framework
##VOLTAGE_LIMIT_END=-8.00000E-001
##SERIAL=IFC1010-28176
##FIRSTX=-8.05196E-001
##LASTX=-8.00273E-001
##MINX=-2.00041
##MAXX=2.2250738585072014e-308
##MINY=-0.000349136
##MAXY=2.2250738585072014e-308
##NPOINTS=480
##FIRSTY=-3.32176E-005
##XUNITS=Voltage in V
##YUNITS=Current in A
##XYPOINTS=(XY..XY)
-8.05196E-001, -3.32176E-005
-8.10208E-001, -3.51507E-005
-8.15204E-001, -3.61666E-005
-8.20214E-001, -3.68546E-005
-8.25202E-001, -3.77037E-005
-8.30208E-001, -3.80498E-005
-8.35225E-001, -3.86887E-005
-8.40212E-001, -3.91471E-005
-8.45193E-001, -3.93967E-005
-8.50202E-001, -3.96556E-005
-8.55204E-001, -4.01692E-005
-8.60208E-001, -4.00014E-005
-8.65198E-001, -4.02817E-005
-8.70181E-001, -4.04097E-005
-8.75231E-001, -4.06543E-005
-8.80223E-001, -4.09684E-005
-8.85215E-001, -4.07263E-005
-8.90215E-001, -4.09871E-005
-8.95219E-001, -4.11053E-005
-9.00224E-001, -4.11709E-005
-9.05218E-001, -4.08588E-005
-9.10249E-001, -4.14882E-005
-9.15241E-001, -4.13391E-005
-9.20218E-001, -4.18379E-005
-9.25238E-001, -4.15015E-005
-9.30247E-001, -4.18213E-005
-9.35259E-001, -4.19068E-005
-9.40241E-001, -4.18660E-005
-9.45230E-001, -4.21479E-005
-9.50253E-001, -4.23064E-005
-9.55249E-001, -4.26196E-005
-9.60233E-001, -4.28806E-005
-9.65244E-001, -4.35929E-005
-9.70215E-001, -4.30344E-005
-9.75266E-001, -4.27936E-005
-9.80259E-001, -4.29712E-005
-9.85254E-001, -4.33114E-005
-9.90248E-001, -4.33738E-005
-9.95209E-001, -4.32886E-005
-1.00024E+000, -4.33814E-005
-1.00523E+000, -4.39959E-005
-1.01022E+000, -4.39340E-005
-1.01523E+000, -4.33499E-005
-1.02022E+000, -4.36250E-005
-1.02522E+000, -4.38234E-005
-1.03022E+000, -4.40924E-005
-1.03521E+000, -4.43936E-005
-1.04023E+000, -4.42633E-005
-1.04523E+000, -4.40148E-005
-1.05020E+000, -4.39472E-005
-1.05522E+000, -4.42243E-005
-1.06021E+000, -4.44349E-005
-1.06521E+000, -4.42455E-005
-1.07020E+000, -4.48960E-005
-1.07519E+000, -4.47411E-005
-1.08025E+000, -4.40898E-005
-1.08522E+000, -4.45109E-005
-1.09023E+000, -4.42985E-005
-1.09522E+000, -4.46108E-005
-1.10022E+000, -4.50117E-005
-1.10524E+000, -4.47370E-005
-1.11022E+000, -4.48011E-005
-1.11525E+000, -4.45847E-005
-1.12023E+000, -4.50747E-005
-1.12521E+000, -4.49471E-005
-1.13024E+000, -4.54489E-005
-1.13524E+000, -4.58151E-005
-1.14032E+000, -4.56926E-005
-1.14530E+000, -4.55596E-005
-1.15028E+000, -4.56716E-005
-1.15532E+000, -4.55079E-005
-1.16030E+000, -4.53819E-005
-1.16527E+000, -4.52960E-005
-1.17031E+000, -4.50456E-005
-1.17529E+000, -4.56731E-005
-1.18031E+000, -4.58800E-005
-1.18531E+000, -4.60056E-005
-1.19029E+000, -4.62772E-005
-1.19530E+000, -4.65112E-005
-1.20027E+000, -4.65727E-005
-1.20530E+000, -4.64633E-005
-1.21030E+000, -4.60610E-005
-1.21528E+000, -4.62417E-005
-1.22030E+000, -4.67131E-005
-1.22528E+000, -4.66925E-005
-1.23029E+000, -4.65334E-005
-1.23528E+000, -4.67299E-005
-1.24027E+000, -4.63720E-005
-1.24528E+000, -4.62990E-005
-1.25028E+000, -4.67238E-005
-1.25527E+000, -4.66046E-005
-1.26029E+000, -4.67015E-005
-1.26528E+000, -4.66145E-005
-1.27030E+000, -4.62017E-005
-1.27528E+000, -4.68931E-005
-1.28028E+000, -4.61461E-005
-1.28532E+000, -4.64530E-005
-1.29030E+000, -4.63052E-005
-1.29531E+000, -4.62912E-005
-1.30030E+000, -4.65377E-005
-1.30528E+000, -4.61238E-005
-1.31031E+000, -4.60339E-005
-1.31529E+000, -4.61624E-005
-1.32030E+000, -4.62459E-005
-1.32530E+000, -4.57548E-005
-1.33029E+000, -4.64461E-005
-1.33530E+000, -4.66951E-005
-1.34031E+000, -4.65096E-005
-1.34531E+000, -4.67354E-005
-1.35029E+000, -4.69393E-005
-1.35529E+000, -4.68254E-005
-1.36031E+000, -4.70549E-005
-1.36531E+000, -4.74324E-005
-1.37029E+000, -4.78786E-005
-1.37530E+000, -4.79097E-005
-1.38030E+000, -4.76988E-005
-1.38533E+000, -4.80525E-005
-1.39031E+000, -4.85464E-005
-1.39532E+000, -4.89230E-005
-1.40032E+000, -4.93913E-005
-1.40530E+000, -5.01892E-005
-1.41030E+000, -5.10361E-005
-1.41530E+000, -5.12268E-005
-1.42030E+000, -5.20708E-005
-1.42531E+000, -5.24244E-005
-1.43029E+000, -5.33608E-005
-1.43531E+000, -5.39234E-005
-1.44029E+000, -5.50933E-005
-1.44531E+000, -5.55717E-005
-1.45031E+000, -5.70839E-005
-1.45529E+000, -5.83079E-005
-1.46027E+000, -5.90807E-005
-1.46529E+000, -6.03906E-005
-1.47028E+000, -6.16740E-005
-1.47530E+000, -6.31755E-005
-1.48028E+000, -6.43658E-005
-1.48528E+000, -6.58630E-005
-1.49031E+000, -6.73375E-005
-1.49530E+000, -6.83772E-005
-1.50037E+000, -7.04553E-005
-1.50537E+000, -7.21979E-005
-1.51033E+000, -7.33734E-005
-1.51535E+000, -7.54304E-005
-1.52032E+000, -7.75324E-005
-1.52535E+000, -7.94468E-005
-1.53034E+000, -8.15462E-005
-1.53532E+000, -8.32546E-005
-1.54035E+000, -8.56638E-005
-1.54537E+000, -8.73041E-005
-1.55037E+000, -8.93784E-005
-1.55535E+000, -9.15604E-005
-1.56034E+000, -9.36857E-005
-1.56538E+000, -9.61100E-005
-1.57036E+000, -9.81269E-005
-1.57535E+000, -1.00422E-004
-1.58036E+000, -1.03004E-004
-1.58535E+000, -1.05635E-004
-1.59037E+000, -1.08301E-004
-1.59536E+000, -1.10290E-004
-1.60035E+000, -1.12862E-004
-1.60537E+000, -1.16212E-004
-1.61036E+000, -1.19037E-004
-1.61536E+000, -1.21942E-004
-1.62036E+000, -1.24014E-004
-1.62536E+000, -1.27354E-004
-1.63037E+000, -1.29975E-004
-1.63536E+000, -1.32642E-004
-1.64035E+000, -1.35228E-004
-1.64533E+000, -1.38150E-004
-1.65033E+000, -1.41322E-004
-1.65534E+000, -1.44889E-004
-1.66033E+000, -1.48599E-004
-1.66534E+000, -1.51633E-004
-1.67032E+000, -1.54723E-004
-1.67531E+000, -1.58310E-004
-1.68033E+000, -1.61401E-004
-1.68534E+000, -1.64979E-004
-1.69032E+000, -1.67483E-004
-1.69535E+000, -1.70508E-004
-1.70033E+000, -1.73271E-004
-1.70533E+000, -1.76660E-004
-1.71033E+000, -1.80253E-004
-1.71532E+000, -1.83957E-004
-1.72033E+000, -1.87485E-004
-1.72533E+000, -1.91136E-004
-1.73036E+000, -1.94479E-004
-1.73534E+000, -1.97688E-004
-1.74033E+000, -2.00905E-004
-1.74537E+000, -2.04250E-004
-1.75035E+000, -2.06995E-004
-1.75537E+000, -2.10049E-004
-1.76034E+000, -2.13061E-004
-1.76534E+000, -2.16356E-004
-1.77036E+000, -2.19898E-004
-1.77535E+000, -2.23116E-004
-1.78035E+000, -2.25181E-004
-1.78535E+000, -2.28661E-004
-1.79035E+000, -2.32091E-004
-1.79537E+000, -2.34948E-004
-1.80036E+000, -2.37142E-004
-1.80534E+000, -2.40208E-004
-1.81035E+000, -2.43857E-004
-1.81534E+000, -2.46444E-004
-1.82034E+000, -2.48393E-004
-1.82535E+000, -2.51064E-004
-1.83034E+000, -2.53786E-004
-1.83534E+000, -2.56735E-004
-1.84033E+000, -2.59872E-004
-1.84535E+000, -2.62158E-004
-1.85034E+000, -2.64564E-004
-1.85532E+000, -2.67280E-004
-1.86039E+000, -2.70154E-004
-1.86536E+000, -2.73548E-004
-1.87038E+000, -2.75769E-004
-1.87539E+000, -2.78533E-004
-1.88039E+000, -2.81678E-004
-1.88539E+000, -2.84712E-004
-1.89038E+000, -2.87271E-004
-1.89537E+000, -2.90167E-004
-1.90039E+000, -2.91704E-004
-1.90538E+000, -2.93948E-004
-1.91039E+000, -2.96334E-004
-1.91540E+000, -2.99302E-004
-1.92038E+000, -3.02164E-004
-1.92538E+000, -3.04676E-004
-1.93038E+000, -3.06728E-004
-1.93540E+000, -3.09170E-004
-1.94039E+000, -3.12320E-004
-1.94537E+000, -3.15566E-004
-1.95041E+000, -3.18110E-004
-1.95539E+000, -3.21671E-004
-1.96041E+000, -3.24616E-004
-1.96540E+000, -3.27453E-004
-1.97037E+000, -3.30562E-004
-1.97540E+000, -3.33129E-004
-1.98040E+000, -3.36566E-004
-1.98539E+000, -3.39129E-004
-1.99039E+000, -3.42172E-004
-1.99541E+000, -3.45870E-004
-2.00041E+000, -3.49136E-004
-1.99545E+000, -3.37008E-004
-1.99045E+000, -3.27806E-004
-1.98543E+000, -3.18714E-004
-1.98044E+000, -3.11684E-004
-1.97544E+000, -3.04910E-004
-1.97044E+000, -2.97933E-004
-1.96544E+000, -2.91447E-004
-1.96046E+000, -2.85791E-004
-1.95544E+000, -2.80357E-004
-1.95045E+000, -2.74980E-004
-1.94543E+000, -2.70303E-004
-1.94043E+000, -2.64640E-004
-1.93545E+000, -2.59889E-004
-1.93044E+000, -2.55711E-004
-1.92544E+000, -2.52189E-004
-1.92042E+000, -2.47375E-004
-1.91544E+000, -2.42669E-004
-1.91045E+000, -2.38478E-004
-1.90541E+000, -2.34338E-004
-1.90043E+000, -2.30373E-004
-1.89542E+000, -2.25316E-004
-1.89042E+000, -2.20090E-004
-1.88543E+000, -2.16501E-004
-1.88043E+000, -2.13324E-004
-1.87542E+000, -2.09018E-004
-1.87042E+000, -2.04933E-004
-1.86542E+000, -2.01223E-004
-1.86042E+000, -1.96745E-004
-1.85537E+000, -1.92864E-004
-1.85036E+000, -1.89089E-004
-1.84538E+000, -1.86091E-004
-1.84037E+000, -1.82213E-004
-1.83540E+000, -1.77859E-004
-1.83039E+000, -1.74393E-004
-1.82539E+000, -1.70768E-004
-1.82040E+000, -1.67077E-004
-1.81538E+000, -1.63096E-004
-1.81038E+000, -1.59201E-004
-1.80539E+000, -1.55415E-004
-1.80042E+000, -1.52021E-004
-1.79541E+000, -1.48165E-004
-1.79040E+000, -1.44569E-004
-1.78539E+000, -1.40321E-004
-1.78037E+000, -1.36261E-004
-1.77538E+000, -1.32491E-004
-1.77039E+000, -1.29258E-004
-1.76537E+000, -1.25830E-004
-1.76038E+000, -1.22348E-004
-1.75542E+000, -1.19102E-004
-1.75040E+000, -1.15810E-004
-1.74542E+000, -1.12774E-004
-1.74038E+000, -1.09585E-004
-1.73537E+000, -1.07123E-004
-1.73039E+000, -1.04462E-004
-1.72540E+000, -1.01780E-004
-1.72038E+000, -9.91117E-005
-1.71538E+000, -9.63133E-005
-1.71042E+000, -9.36232E-005
-1.70541E+000, -9.12703E-005
-1.70039E+000, -8.86711E-005
-1.69540E+000, -8.60014E-005
-1.69035E+000, -8.38263E-005
-1.68536E+000, -8.16284E-005
-1.68037E+000, -7.88970E-005
-1.67536E+000, -7.70142E-005
-1.67038E+000, -7.51946E-005
-1.66539E+000, -7.31801E-005
-1.66038E+000, -7.13372E-005
-1.65539E+000, -6.92271E-005
-1.65038E+000, -6.73116E-005
-1.64536E+000, -6.57538E-005
-1.64039E+000, -6.40851E-005
-1.63539E+000, -6.22896E-005
-1.63040E+000, -6.07506E-005
-1.62538E+000, -5.94948E-005
-1.62039E+000, -5.83209E-005
-1.61540E+000, -5.69655E-005
-1.61038E+000, -5.55454E-005
-1.60542E+000, -5.43332E-005
-1.60041E+000, -5.31952E-005
-1.59543E+000, -5.21782E-005
-1.59043E+000, -5.08711E-005
-1.58541E+000, -4.98985E-005
-1.58042E+000, -4.89276E-005
-1.57540E+000, -4.78197E-005
-1.57041E+000, -4.67311E-005
-1.56541E+000, -4.58647E-005
-1.56041E+000, -4.50030E-005
-1.55542E+000, -4.42813E-005
-1.55043E+000, -4.33700E-005
-1.54542E+000, -4.26966E-005
-1.54041E+000, -4.19816E-005
-1.53539E+000, -4.14794E-005
-1.53038E+000, -4.06762E-005
-1.52542E+000, -4.01124E-005
-1.52039E+000, -3.97640E-005
-1.51541E+000, -3.90732E-005
-1.51038E+000, -3.82691E-005
-1.50541E+000, -3.81060E-005
-1.50042E+000, -3.78884E-005
-1.49536E+000, -3.74075E-005
-1.49037E+000, -3.70845E-005
-1.48534E+000, -3.64296E-005
-1.48034E+000, -3.61763E-005
-1.47536E+000, -3.60891E-005
-1.47033E+000, -3.61419E-005
-1.46533E+000, -3.59924E-005
-1.46030E+000, -3.57606E-005
-1.45531E+000, -3.58788E-005
-1.45034E+000, -3.57444E-005
-1.44534E+000, -3.57302E-005
-1.44033E+000, -3.59041E-005
-1.43535E+000, -3.63298E-005
-1.43037E+000, -3.63298E-005
-1.42537E+000, -3.62034E-005
-1.42035E+000, -3.63652E-005
-1.41536E+000, -3.69356E-005
-1.41035E+000, -3.73494E-005
-1.40534E+000, -3.72071E-005
-1.40036E+000, -3.74148E-005
-1.39534E+000, -3.74804E-005
-1.39035E+000, -3.80910E-005
-1.38538E+000, -3.77670E-005
-1.38033E+000, -3.82949E-005
-1.37535E+000, -3.87657E-005
-1.37033E+000, -3.83765E-005
-1.36534E+000, -3.87690E-005
-1.36034E+000, -3.86772E-005
-1.35534E+000, -3.85915E-005
-1.35033E+000, -3.86989E-005
-1.34536E+000, -3.90809E-005
-1.34036E+000, -3.90712E-005
-1.33536E+000, -3.89453E-005
-1.33034E+000, -3.86529E-005
-1.32533E+000, -3.88411E-005
-1.32035E+000, -3.89407E-005
-1.31535E+000, -3.87266E-005
-1.31035E+000, -3.92936E-005
-1.30533E+000, -3.84343E-005
-1.30033E+000, -3.81252E-005
-1.29535E+000, -3.81149E-005
-1.29034E+000, -3.78985E-005
-1.28535E+000, -3.79674E-005
-1.28033E+000, -3.81759E-005
-1.27532E+000, -3.76401E-005
-1.27034E+000, -3.73261E-005
-1.26533E+000, -3.74511E-005
-1.26034E+000, -3.70614E-005
-1.25530E+000, -3.72055E-005
-1.25032E+000, -3.66974E-005
-1.24534E+000, -3.63920E-005
-1.24034E+000, -3.61938E-005
-1.23533E+000, -3.61556E-005
-1.23032E+000, -3.60598E-005
-1.22532E+000, -3.57777E-005
-1.22034E+000, -3.49050E-005
-1.21534E+000, -3.46889E-005
-1.21033E+000, -3.48040E-005
-1.20534E+000, -3.46133E-005
-1.20032E+000, -3.41641E-005
-1.19533E+000, -3.40926E-005
-1.19033E+000, -3.35033E-005
-1.18535E+000, -3.34471E-005
-1.18035E+000, -3.35692E-005
-1.17532E+000, -3.39358E-005
-1.17033E+000, -3.34436E-005
-1.16531E+000, -3.26300E-005
-1.16034E+000, -3.26592E-005
-1.15535E+000, -3.23799E-005
-1.15033E+000, -3.28538E-005
-1.14534E+000, -3.24459E-005
-1.14034E+000, -3.16845E-005
-1.13528E+000, -3.13528E-005
-1.13029E+000, -3.16016E-005
-1.12526E+000, -3.15166E-005
-1.12029E+000, -3.12769E-005
-1.11529E+000, -3.12803E-005
-1.11028E+000, -3.10283E-005
-1.10528E+000, -3.11647E-005
-1.10026E+000, -3.02554E-005
-1.09528E+000, -3.10761E-005
-1.09029E+000, -3.07732E-005
-1.08528E+000, -3.15984E-005
-1.08029E+000, -3.15689E-005
-1.07526E+000, -3.13315E-005
-1.07026E+000, -3.03736E-005
-1.06526E+000, -3.08257E-005
-1.06026E+000, -3.08439E-005
-1.05527E+000, -3.12878E-005
-1.05026E+000, -3.16924E-005
-1.04527E+000, -3.14734E-005
-1.04027E+000, -3.17285E-005
-1.03527E+000, -3.19493E-005
-1.03026E+000, -3.18155E-005
-1.02526E+000, -3.20064E-005
-1.02027E+000, -3.20393E-005
-1.01528E+000, -3.09639E-005
-1.01027E+000, -3.14439E-005
-1.00527E+000, -3.17416E-005
-1.00029E+000, -3.14260E-005
-9.95272E-001, -3.16977E-005
-9.90289E-001, -3.13972E-005
-9.85293E-001, -3.18457E-005
-9.80304E-001, -3.19065E-005
-9.75309E-001, -3.18963E-005
-9.70268E-001, -3.20502E-005
-9.65294E-001, -3.20940E-005
-9.60266E-001, -3.24575E-005
-9.55276E-001, -3.20136E-005
-9.50279E-001, -3.18708E-005
-9.45266E-001, -3.20678E-005
-9.40283E-001, -3.24205E-005
-9.35300E-001, -3.24287E-005
-9.30288E-001, -3.30889E-005
-9.25285E-001, -3.30288E-005
-9.20257E-001, -3.31806E-005
-9.15267E-001, -3.30622E-005
-9.10278E-001, -3.33277E-005
-9.05271E-001, -3.36226E-005
-9.00272E-001, -3.42125E-005
-8.95251E-001, -3.40718E-005
-8.90277E-001, -3.42873E-005
-8.85292E-001, -3.47768E-005
-8.80278E-001, -3.48596E-005
-8.75291E-001, -3.45673E-005
-8.70251E-001, -3.51214E-005
-8.65255E-001, -3.52623E-005
-8.60256E-001, -3.56008E-005
-8.55247E-001, -3.57328E-005
-8.50251E-001, -3.56965E-005
-8.45236E-001, -3.53712E-005
-8.40248E-001, -3.54620E-005
-8.35261E-001, -3.53449E-005
-8.30257E-001, -3.52606E-005
-8.25256E-001, -3.50946E-005
-8.20263E-001, -3.53217E-005
-8.15257E-001, -3.53815E-005
-8.10266E-001, -3.52147E-005
-8.05243E-001, -3.48754E-005
-8.00273E-001, -3.50241E-005
##END=$$ End of the data block
